timestamp_s,raw_mV,filtered_mV,is_r_peak,loop,hr_bpm,snr_db
0.000000,-0.0248,-0.0580,0,2,72.46,7.33
0.002000,-0.0079,-0.0488,0,2,72.46,7.33
0.004000,0.0060,-0.0410,0,2,72.46,7.33
0.006000,0.0234,-0.0355,0,2,72.46,7.33
0.008000,0.0187,-0.0330,0,2,72.46,7.33
0.010000,-0.0159,-0.0331,0,2,72.46,7.33
0.012000,0.0135,-0.0350,0,2,72.46,7.33
0.014000,-0.0147,-0.0376,0,2,72.46,7.33
0.016000,-0.0006,-0.0396,0,2,72.46,7.33
0.018000,-0.0184,-0.0399,0,2,72.46,7.33
0.020000,-0.0346,-0.0381,0,2,72.46,7.33
0.022000,-0.0119,-0.0343,0,2,72.46,7.33
0.024000,0.0293,-0.0292,0,2,72.46,7.33
0.026000,0.0423,-0.0239,0,2,72.46,7.33
0.028000,0.0429,-0.0194,0,2,72.46,7.33
0.030000,0.0073,-0.0168,0,2,72.46,7.33
0.032000,0.0355,-0.0166,0,2,72.46,7.33
0.034000,0.0130,-0.0189,0,2,72.46,7.33
0.036000,-0.0118,-0.0230,0,2,72.46,7.33
0.038000,0.0174,-0.0283,0,2,72.46,7.33
0.040000,0.0065,-0.0338,0,2,72.46,7.33
0.042000,0.0323,-0.0383,0,2,72.46,7.33
0.044000,-0.0112,-0.0410,0,2,72.46,7.33
0.046000,-0.0069,-0.0412,0,2,72.46,7.33
0.048000,-0.0010,-0.0386,0,2,72.46,7.33
0.050000,0.0168,-0.0334,0,2,72.46,7.33
0.052000,0.0102,-0.0259,0,2,72.46,7.33
0.054000,0.0340,-0.0170,0,2,72.46,7.33
0.056000,0.0104,-0.0075,0,2,72.46,7.33
0.058000,0.0692,0.0018,0,2,72.46,7.33
0.060000,0.0547,0.0103,0,2,72.46,7.33
0.062000,0.0717,0.0179,0,2,72.46,7.33
0.064000,0.0676,0.0244,0,2,72.46,7.33
0.066000,0.0765,0.0304,0,2,72.46,7.33
0.068000,0.1021,0.0362,0,2,72.46,7.33
0.070000,0.0815,0.0425,0,2,72.46,7.33
0.072000,0.0929,0.0495,0,2,72.46,7.33
0.074000,0.0860,0.0574,0,2,72.46,7.33
0.076000,0.0808,0.0659,0,2,72.46,7.33
0.078000,0.1244,0.0746,0,2,72.46,7.33
0.080000,0.1690,0.0827,0,2,72.46,7.33
0.082000,0.1376,0.0897,0,2,72.46,7.33
0.084000,0.1428,0.0953,0,2,72.46,7.33
0.086000,0.1734,0.0994,0,2,72.46,7.33
0.088000,0.1777,0.1023,0,2,72.46,7.33
0.090000,0.1174,0.1048,0,2,72.46,7.33
0.092000,0.1484,0.1073,0,2,72.46,7.33
0.094000,0.1472,0.1103,0,2,72.46,7.33
0.096000,0.1802,0.1140,0,2,72.46,7.33
0.098000,0.1548,0.1181,0,2,72.46,7.33
0.100000,0.1610,0.1220,0,2,72.46,7.33
0.102000,0.1853,0.1250,0,2,72.46,7.33
0.104000,0.1886,0.1263,0,2,72.46,7.33
0.106000,0.1961,0.1252,0,2,72.46,7.33
0.108000,0.2063,0.1216,0,2,72.46,7.33
0.110000,0.1704,0.1158,0,2,72.46,7.33
0.112000,0.1427,0.1081,0,2,72.46,7.33
0.114000,0.1255,0.0995,0,2,72.46,7.33
0.116000,0.1192,0.0905,0,2,72.46,7.33
0.118000,0.1741,0.0817,0,2,72.46,7.33
0.120000,0.1450,0.0732,0,2,72.46,7.33
0.122000,0.0834,0.0650,0,2,72.46,7.33
0.124000,0.1135,0.0569,0,2,72.46,7.33
0.126000,0.1170,0.0484,0,2,72.46,7.33
0.128000,0.1266,0.0394,0,2,72.46,7.33
0.130000,0.0935,0.0296,0,2,72.46,7.33
0.132000,0.0585,0.0192,0,2,72.46,7.33
0.134000,0.0563,0.0087,0,2,72.46,7.33
0.136000,0.0590,-0.0015,0,2,72.46,7.33
0.138000,0.0462,-0.0107,0,2,72.46,7.33
0.140000,0.0498,-0.0184,0,2,72.46,7.33
0.142000,0.0168,-0.0242,0,2,72.46,7.33
0.144000,0.0420,-0.0281,0,2,72.46,7.33
0.146000,0.0419,-0.0302,0,2,72.46,7.33
0.148000,0.0287,-0.0309,0,2,72.46,7.33
0.150000,0.0480,-0.0310,0,2,72.46,7.33
0.152000,0.0027,-0.0311,0,2,72.46,7.33
0.154000,-0.0003,-0.0322,0,2,72.46,7.33
0.156000,0.0259,-0.0350,0,2,72.46,7.33
0.158000,0.0589,-0.0398,0,2,72.46,7.33
0.160000,0.0303,-0.0464,0,2,72.46,7.33
0.162000,0.0013,-0.0540,0,2,72.46,7.33
0.164000,0.0006,-0.0609,0,2,72.46,7.33
0.166000,-0.0323,-0.0647,0,2,72.46,7.33
0.168000,0.0462,-0.0624,0,2,72.46,7.33
0.170000,0.0121,-0.0504,0,2,72.46,7.33
0.172000,0.0062,-0.0253,0,2,72.46,7.33
0.174000,0.1017,0.0167,0,2,72.46,7.33
0.176000,0.1326,0.0785,0,2,72.46,7.33
0.178000,0.2702,0.1624,0,2,72.46,7.33
0.180000,0.3356,0.2692,0,2,72.46,7.33
0.182000,0.4540,0.3981,0,2,72.46,7.33
0.184000,0.5895,0.5462,0,2,72.46,7.33
0.186000,0.7415,0.7084,0,2,72.46,7.33
0.188000,0.9512,0.8771,0,2,72.46,7.33
0.190000,1.1111,1.0434,0,2,72.46,7.33
0.192000,1.2833,1.1969,0,2,72.46,7.33
0.194000,1.3741,1.3272,0,2,72.46,7.33
0.196000,1.5042,1.4247,0,2,72.46,7.33
0.198000,1.5672,1.4818,1,2,72.46,7.33
0.200000,1.5714,1.4933,1,2,72.46,7.33
0.202000,1.5243,1.4575,1,2,72.46,7.33
0.204000,1.4521,1.3761,0,2,72.46,7.33
0.206000,1.3436,1.2541,0,2,72.46,7.33
0.208000,1.1854,1.0996,0,2,72.46,7.33
0.210000,0.9894,0.9228,0,2,72.46,7.33
0.212000,0.7789,0.7354,0,2,72.46,7.33
0.214000,0.6424,0.5490,0,2,72.46,7.33
0.216000,0.3977,0.3745,0,2,72.46,7.33
0.218000,0.3017,0.2209,0,2,72.46,7.33
0.220000,0.1717,0.0947,0,2,72.46,7.33
0.222000,0.0668,-0.0008,0,2,72.46,7.33
0.224000,-0.0039,-0.0651,0,2,72.46,7.33
0.226000,-0.0101,-0.1004,0,2,72.46,7.33
0.228000,-0.0495,-0.1114,0,2,72.46,7.33
0.230000,-0.0634,-0.1040,0,2,72.46,7.33
0.232000,0.0243,-0.0849,0,2,72.46,7.33
0.234000,0.0532,-0.0605,0,2,72.46,7.33
0.236000,0.0074,-0.0364,0,2,72.46,7.33
0.238000,0.0843,-0.0164,0,2,72.46,7.33
0.240000,0.0791,-0.0025,0,2,72.46,7.33
0.242000,0.0985,0.0048,0,2,72.46,7.33
0.244000,0.0666,0.0066,0,2,72.46,7.33
0.246000,0.0874,0.0048,0,2,72.46,7.33
0.248000,0.0499,0.0016,0,2,72.46,7.33
0.250000,0.0652,-0.0009,0,2,72.46,7.33
0.252000,0.0333,-0.0012,0,2,72.46,7.33
0.254000,0.1036,0.0012,0,2,72.46,7.33
0.256000,0.1042,0.0066,0,2,72.46,7.33
0.258000,0.1081,0.0142,0,2,72.46,7.33
0.260000,0.1172,0.0235,0,2,72.46,7.33
0.262000,0.0864,0.0336,0,2,72.46,7.33
0.264000,0.1472,0.0442,0,2,72.46,7.33
0.266000,0.1240,0.0546,0,2,72.46,7.33
0.268000,0.1347,0.0648,0,2,72.46,7.33
0.270000,0.1462,0.0746,0,2,72.46,7.33
0.272000,0.1533,0.0841,0,2,72.46,7.33
0.274000,0.2151,0.0933,0,2,72.46,7.33
0.276000,0.1785,0.1024,0,2,72.46,7.33
0.278000,0.1780,0.1117,0,2,72.46,7.33
0.280000,0.1953,0.1214,0,2,72.46,7.33
0.282000,0.2157,0.1316,0,2,72.46,7.33
0.284000,0.2257,0.1423,0,2,72.46,7.33
0.286000,0.2287,0.1536,0,2,72.46,7.33
0.288000,0.2714,0.1652,0,2,72.46,7.33
0.290000,0.2516,0.1769,0,2,72.46,7.33
0.292000,0.2798,0.1887,0,2,72.46,7.33
0.294000,0.2917,0.2002,0,2,72.46,7.33
0.296000,0.2618,0.2115,0,2,72.46,7.33
0.298000,0.3170,0.2221,0,2,72.46,7.33
0.300000,0.3007,0.2319,0,2,72.46,7.33
0.302000,0.3239,0.2404,0,2,72.46,7.33
0.304000,0.3406,0.2473,0,2,72.46,7.33
0.306000,0.3798,0.2524,0,2,72.46,7.33
0.308000,0.3284,0.2557,0,2,72.46,7.33
0.310000,0.3321,0.2576,0,2,72.46,7.33
0.312000,0.3543,0.2583,0,2,72.46,7.33
0.314000,0.3310,0.2584,0,2,72.46,7.33
0.316000,0.3086,0.2580,0,2,72.46,7.33
0.318000,0.3529,0.2575,0,2,72.46,7.33
0.320000,0.3651,0.2566,0,2,72.46,7.33
0.322000,0.3449,0.2554,0,2,72.46,7.33
0.324000,0.3532,0.2537,0,2,72.46,7.33
0.326000,0.3602,0.2512,0,2,72.46,7.33
0.328000,0.3139,0.2481,0,2,72.46,7.33
0.330000,0.3134,0.2442,0,2,72.46,7.33
0.332000,0.3316,0.2394,0,2,72.46,7.33
0.334000,0.2869,0.2336,0,2,72.46,7.33
0.336000,0.3385,0.2266,0,2,72.46,7.33
0.338000,0.3270,0.2185,0,2,72.46,7.33
0.340000,0.3228,0.2092,0,2,72.46,7.33
0.342000,0.2987,0.1992,0,2,72.46,7.33
0.344000,0.2551,0.1889,0,2,72.46,7.33
0.346000,0.2402,0.1790,0,2,72.46,7.33
0.348000,0.2631,0.1697,0,2,72.46,7.33
0.350000,0.2498,0.1614,0,2,72.46,7.33
0.352000,0.2864,0.1539,0,2,72.46,7.33
0.354000,0.2171,0.1470,0,2,72.46,7.33
0.356000,0.2094,0.1402,0,2,72.46,7.33
0.358000,0.2398,0.1330,0,2,72.46,7.33
0.360000,0.2020,0.1249,0,2,72.46,7.33
0.362000,0.2167,0.1156,0,2,72.46,7.33
0.364000,0.2263,0.1051,0,2,72.46,7.33
0.366000,0.1778,0.0934,0,2,72.46,7.33
0.368000,0.1822,0.0810,0,2,72.46,7.33
0.370000,0.1632,0.0686,0,2,72.46,7.33
0.372000,0.1282,0.0567,0,2,72.46,7.33
0.374000,0.1335,0.0458,0,2,72.46,7.33
0.376000,0.1022,0.0362,0,2,72.46,7.33
0.378000,0.1400,0.0277,0,2,72.46,7.33
0.380000,0.1124,0.0201,0,2,72.46,7.33
0.382000,0.1528,0.0131,0,2,72.46,7.33
0.384000,0.0998,0.0064,0,2,72.46,7.33
0.386000,0.0801,-0.0002,0,2,72.46,7.33
0.388000,0.0735,-0.0068,0,2,72.46,7.33
0.390000,0.0870,-0.0131,0,2,72.46,7.33
0.392000,0.0656,-0.0194,0,2,72.46,7.33
0.394000,0.0713,-0.0255,0,2,72.46,7.33
0.396000,0.0705,-0.0315,0,2,72.46,7.33
0.398000,0.0631,-0.0374,0,2,72.46,7.33
0.400000,0.0760,-0.0435,0,2,72.46,7.33
0.402000,0.0222,-0.0496,0,2,72.46,7.33
0.404000,0.0354,-0.0557,0,2,72.46,7.33
0.406000,0.0312,-0.0619,0,2,72.46,7.33
0.408000,0.0213,-0.0682,0,2,72.46,7.33
0.410000,0.0617,-0.0742,0,2,72.46,7.33
0.412000,0.0197,-0.0800,0,2,72.46,7.33
0.414000,-0.0052,-0.0853,0,2,72.46,7.33
0.416000,0.0181,-0.0898,0,2,72.46,7.33
0.418000,-0.0243,-0.0934,0,2,72.46,7.33
0.420000,0.0044,-0.0962,0,2,72.46,7.33
0.422000,-0.0048,-0.0982,0,2,72.46,7.33
0.424000,0.0208,-0.0999,0,2,72.46,7.33
0.426000,-0.0049,-0.1013,0,2,72.46,7.33
0.428000,0.0262,-0.1026,0,2,72.46,7.33
0.430000,-0.0266,-0.1037,0,2,72.46,7.33
0.432000,-0.0186,-0.1046,0,2,72.46,7.33
0.434000,0.0103,-0.1050,0,2,72.46,7.33
0.436000,-0.0146,-0.1046,0,2,72.46,7.33
0.438000,-0.0209,-0.1035,0,2,72.46,7.33
0.440000,0.0441,-0.1017,0,2,72.46,7.33
0.442000,-0.0240,-0.0994,0,2,72.46,7.33
0.444000,-0.0143,-0.0968,0,2,72.46,7.33
0.446000,0.0382,-0.0945,0,2,72.46,7.33
0.448000,-0.0233,-0.0928,0,2,72.46,7.33
0.450000,0.0357,-0.0920,0,2,72.46,7.33
0.452000,-0.0135,-0.0923,0,2,72.46,7.33
0.454000,0.0322,-0.0938,0,2,72.46,7.33
0.456000,0.0018,-0.0960,0,2,72.46,7.33
0.458000,0.0222,-0.0986,0,2,72.46,7.33
0.460000,-0.0009,-0.1009,0,2,72.46,7.33
0.462000,-0.0137,-0.1023,0,2,72.46,7.33
0.464000,-0.0105,-0.1027,0,2,72.46,7.33
0.466000,-0.0243,-0.1017,0,2,72.46,7.33
0.468000,0.0170,-0.0998,0,2,72.46,7.33
0.470000,0.0308,-0.0975,0,2,72.46,7.33
0.472000,-0.0201,-0.0953,0,2,72.46,7.33
0.474000,0.0490,-0.0939,0,2,72.46,7.33
0.476000,0.0015,-0.0937,0,2,72.46,7.33
0.478000,0.0005,-0.0949,0,2,72.46,7.33
0.480000,0.0131,-0.0974,0,2,72.46,7.33
0.482000,0.0010,-0.1008,0,2,72.46,7.33
0.484000,-0.0087,-0.1049,0,2,72.46,7.33
0.486000,0.0005,-0.1092,0,2,72.46,7.33
0.488000,-0.0269,-0.1132,0,2,72.46,7.33
0.490000,-0.0014,-0.1167,0,2,72.46,7.33
0.492000,-0.0075,-0.1192,0,2,72.46,7.33
0.494000,-0.0048,-0.1207,0,2,72.46,7.33
0.496000,-0.0122,-0.1209,0,2,72.46,7.33
0.498000,-0.0269,-0.1199,0,2,72.46,7.33
0.500000,-0.0128,-0.1177,0,2,72.46,7.33
0.502000,-0.0209,-0.1145,0,2,72.46,7.33
0.504000,0.0116,-0.1108,0,2,72.46,7.33
0.506000,-0.0091,-0.1068,0,2,72.46,7.33
0.508000,-0.0098,-0.1033,0,2,72.46,7.33
0.510000,0.0228,-0.1005,0,2,72.46,7.33
0.512000,0.0282,-0.0987,0,2,72.46,7.33
0.514000,-0.0244,-0.0981,0,2,72.46,7.33
0.516000,0.0305,-0.0986,0,2,72.46,7.33
0.518000,0.0026,-0.0998,0,2,72.46,7.33
0.520000,0.0250,-0.1014,0,2,72.46,7.33
0.522000,-0.0151,-0.1029,0,2,72.46,7.33
0.524000,-0.0039,-0.1040,0,2,72.46,7.33
0.526000,-0.0030,-0.1045,0,2,72.46,7.33
0.528000,0.0110,-0.1045,0,2,72.46,7.33
0.530000,-0.0035,-0.1040,0,2,72.46,7.33
0.532000,-0.0029,-0.1034,0,2,72.46,7.33
0.534000,0.0365,-0.1030,0,2,72.46,7.33
0.536000,-0.0022,-0.1031,0,2,72.46,7.33
0.538000,0.0149,-0.1038,0,2,72.46,7.33
0.540000,0.0062,-0.1051,0,2,72.46,7.33
0.542000,0.0024,-0.1068,0,2,72.46,7.33
0.544000,-0.0373,-0.1087,0,2,72.46,7.33
0.546000,-0.0190,-0.1108,0,2,72.46,7.33
0.548000,0.0320,-0.1127,0,2,72.46,7.33
0.550000,0.0002,-0.1145,0,2,72.46,7.33
0.552000,0.0105,-0.1159,0,2,72.46,7.33
0.554000,-0.0148,-0.1167,0,2,72.46,7.33
0.556000,0.0014,-0.1167,0,2,72.46,7.33
0.558000,-0.0200,-0.1157,0,2,72.46,7.33
0.560000,-0.0346,-0.1137,0,2,72.46,7.33
0.562000,0.0202,-0.1111,0,2,72.46,7.33
0.564000,0.0019,-0.1082,0,2,72.46,7.33
0.566000,-0.0142,-0.1058,0,2,72.46,7.33
0.568000,0.0307,-0.1043,0,2,72.46,7.33
0.570000,0.0036,-0.1040,0,2,72.46,7.33
0.572000,0.0252,-0.1049,0,2,72.46,7.33
0.574000,-0.0014,-0.1069,0,2,72.46,7.33
0.576000,-0.0065,-0.1093,0,2,72.46,7.33
0.578000,0.0292,-0.1115,0,2,72.46,7.33
0.580000,-0.0272,-0.1130,0,2,72.46,7.33
0.582000,-0.0244,-0.1133,0,2,72.46,7.33
0.584000,-0.0166,-0.1125,0,2,72.46,7.33
0.586000,0.0009,-0.1108,0,2,72.46,7.33
0.588000,0.0533,-0.1087,0,2,72.46,7.33
0.590000,-0.0053,-0.1069,0,2,72.46,7.33
0.592000,0.0059,-0.1057,0,2,72.46,7.33
0.594000,-0.0129,-0.1057,0,2,72.46,7.33
0.596000,0.0157,-0.1067,0,2,72.46,7.33
0.598000,0.0149,-0.1088,0,2,72.46,7.33
0.600000,-0.0073,-0.1117,0,2,72.46,7.33
0.602000,0.0052,-0.1148,0,2,72.46,7.33
0.604000,-0.0030,-0.1179,0,2,72.46,7.33
0.606000,-0.0104,-0.1204,0,2,72.46,7.33
0.608000,-0.0302,-0.1223,0,2,72.46,7.33
0.610000,-0.0370,-0.1233,0,2,72.46,7.33
0.612000,0.0149,-0.1238,0,2,72.46,7.33
0.614000,0.0020,-0.1239,0,2,72.46,7.33
0.616000,0.0056,-0.1238,0,2,72.46,7.33
0.618000,0.0109,-0.1238,0,2,72.46,7.33
0.620000,-0.0652,-0.1239,0,2,72.46,7.33
0.622000,0.0068,-0.1238,0,2,72.46,7.33
0.624000,-0.0172,-0.1234,0,2,72.46,7.33
0.626000,0.0029,-0.1226,0,2,72.46,7.33
0.628000,0.0081,-0.1213,0,2,72.46,7.33
0.630000,-0.0300,-0.1194,0,2,72.46,7.33
0.632000,-0.0132,-0.1171,0,2,72.46,7.33
0.634000,-0.0137,-0.1146,0,2,72.46,7.33
0.636000,0.0199,-0.1123,0,2,72.46,7.33
0.638000,0.0406,-0.1105,0,2,72.46,7.33
0.640000,-0.0082,-0.1092,0,2,72.46,7.33
0.642000,0.0171,-0.1087,0,2,72.46,7.33
0.644000,-0.0241,-0.1087,0,2,72.46,7.33
0.646000,-0.0014,-0.1092,0,2,72.46,7.33
0.648000,-0.0035,-0.1101,0,2,72.46,7.33
0.650000,-0.0014,-0.1111,0,2,72.46,7.33
0.652000,0.0493,-0.1123,0,2,72.46,7.33
0.654000,0.0125,-0.1135,0,2,72.46,7.33
0.656000,-0.0344,-0.1145,0,2,72.46,7.33
0.658000,-0.0078,-0.1152,0,2,72.46,7.33
0.660000,0.0060,-0.1156,0,2,72.46,7.33
0.662000,-0.0062,-0.1157,0,2,72.46,7.33
0.664000,0.0159,-0.1154,0,2,72.46,7.33
0.666000,-0.0035,-0.1150,0,2,72.46,7.33
0.668000,-0.0021,-0.1146,0,2,72.46,7.33
0.670000,0.0015,-0.1141,0,2,72.46,7.33
0.672000,-0.0064,-0.1136,0,2,72.46,7.33
0.674000,0.0221,-0.1131,0,2,72.46,7.33
0.676000,-0.0007,-0.1126,0,2,72.46,7.33
0.678000,-0.0019,-0.1122,0,2,72.46,7.33
0.680000,0.0083,-0.1118,0,2,72.46,7.33
0.682000,-0.0218,-0.1117,0,2,72.46,7.33
0.684000,0.0105,-0.1120,0,2,72.46,7.33
0.686000,0.0223,-0.1127,0,2,72.46,7.33
0.688000,0.0250,-0.1140,0,2,72.46,7.33
0.690000,-0.0141,-0.1157,0,2,72.46,7.33
0.692000,-0.0321,-0.1176,0,2,72.46,7.33
0.694000,0.0050,-0.1196,0,2,72.46,7.33
0.696000,-0.0031,-0.1215,0,2,72.46,7.33
0.698000,-0.0014,-0.1232,0,2,72.46,7.33
0.700000,0.0099,-0.1245,0,2,72.46,7.33
0.702000,-0.0052,-0.1254,0,2,72.46,7.33
0.704000,-0.0194,-0.1258,0,2,72.46,7.33
0.706000,-0.0321,-0.1258,0,2,72.46,7.33
0.708000,-0.0162,-0.1254,0,2,72.46,7.33
0.710000,0.0006,-0.1249,0,2,72.46,7.33
0.712000,0.0124,-0.1243,0,2,72.46,7.33
0.714000,-0.0067,-0.1237,0,2,72.46,7.33
0.716000,0.0042,-0.1232,0,2,72.46,7.33
0.718000,-0.0101,-0.1226,0,2,72.46,7.33
0.720000,-0.0115,-0.1219,0,2,72.46,7.33
0.722000,-0.0215,-0.1211,0,2,72.46,7.33
0.724000,0.0155,-0.1203,0,2,72.46,7.33
0.726000,-0.0249,-0.1196,0,2,72.46,7.33
0.728000,-0.0102,-0.1194,0,2,72.46,7.33
0.730000,0.0288,-0.1200,0,2,72.46,7.33
0.732000,-0.0004,-0.1215,0,2,72.46,7.33
0.734000,0.0025,-0.1239,0,2,72.46,7.33
0.736000,-0.0523,-0.1270,0,2,72.46,7.33
0.738000,0.0014,-0.1304,0,2,72.46,7.33
0.740000,0.0233,-0.1336,0,2,72.46,7.33
0.742000,-0.0471,-0.1361,0,2,72.46,7.33
0.744000,-0.0110,-0.1375,0,2,72.46,7.33
0.746000,-0.0396,-0.1373,0,2,72.46,7.33
0.748000,0.0029,-0.1356,0,2,72.46,7.33
0.750000,-0.0355,-0.1326,0,2,72.46,7.33
0.752000,-0.0320,-0.1287,0,2,72.46,7.33
0.754000,-0.0018,-0.1244,0,2,72.46,7.33
0.756000,0.0257,-0.1205,0,2,72.46,7.33
0.758000,0.0140,-0.1174,0,2,72.46,7.33
0.760000,0.0083,-0.1153,0,2,72.46,7.33
0.762000,-0.0062,-0.1140,0,2,72.46,7.33
0.764000,0.0027,-0.1133,0,2,72.46,7.33
0.766000,0.0143,-0.1127,0,2,72.46,7.33
0.768000,-0.0503,-0.1119,0,2,72.46,7.33
0.770000,0.0442,-0.1107,0,2,72.46,7.33
0.772000,-0.0005,-0.1092,0,2,72.46,7.33
0.774000,0.0300,-0.1075,0,2,72.46,7.33
0.776000,0.0066,-0.1061,0,2,72.46,7.33
0.778000,0.0028,-0.1054,0,2,72.46,7.33
0.780000,0.0064,-0.1058,0,2,72.46,7.33
0.782000,0.0205,-0.1076,0,2,72.46,7.33
0.784000,0.0018,-0.1106,0,2,72.46,7.33
0.786000,0.0310,-0.1148,0,2,72.46,7.33
0.788000,0.0211,-0.1195,0,2,72.46,7.33
0.790000,-0.0449,-0.1239,0,2,72.46,7.33
0.792000,-0.0284,-0.1273,0,2,72.46,7.33
0.794000,0.0105,-0.1292,0,2,72.46,7.33
0.796000,-0.0039,-0.1291,0,2,72.46,7.33
0.798000,-0.0374,-0.1272,0,2,72.46,7.33
0.800000,-0.0121,-0.1238,0,2,72.46,7.33
0.802000,0.0197,-0.1196,0,2,72.46,7.33
0.804000,0.0056,-0.1153,0,2,72.46,7.33
0.806000,0.0187,-0.1115,0,2,72.46,7.33
0.808000,0.0298,-0.1085,0,2,72.46,7.33
0.810000,0.0071,-0.1065,0,2,72.46,7.33
0.812000,-0.0133,-0.1053,0,2,72.46,7.33
0.814000,-0.0157,-0.1046,0,2,72.46,7.33
0.816000,0.0462,-0.1042,0,2,72.46,7.33
0.818000,0.0363,-0.1041,0,2,72.46,7.33
0.820000,-0.0193,-0.1043,0,2,72.46,7.33
0.822000,0.0144,-0.1048,0,2,72.46,7.33
0.824000,0.0221,-0.1058,0,2,72.46,7.33
0.826000,0.0216,-0.1074,0,2,72.46,7.33
0.828000,0.0114,-0.1095,0,2,72.46,7.33
0.830000,0.0113,-0.1119,0,2,72.46,7.33
0.832000,-0.0176,-0.1144,0,2,72.46,7.33
0.834000,0.0003,-0.1166,0,2,72.46,7.33
0.836000,0.0144,-0.1181,0,2,72.46,7.33
0.838000,0.0194,-0.1187,0,2,72.46,7.33
0.840000,-0.0248,-0.1181,0,2,72.46,7.33
0.842000,-0.0202,-0.1164,0,2,72.46,7.33
0.844000,0.0352,-0.1139,0,2,72.46,7.33
0.846000,0.0224,-0.1109,0,2,72.46,7.33
0.848000,-0.0096,-0.1080,0,2,72.46,7.33
0.850000,-0.0171,-0.1056,0,2,72.46,7.33
0.852000,0.0321,-0.1041,0,2,72.46,7.33
0.854000,0.0656,-0.1039,0,2,72.46,7.33
0.856000,-0.0224,-0.1050,0,2,72.46,7.33
0.858000,0.0064,-0.1072,0,2,72.46,7.33
0.860000,0.0390,-0.1103,0,2,72.46,7.33
0.862000,-0.0265,-0.1140,0,2,72.46,7.33
0.864000,-0.0077,-0.1179,0,2,72.46,7.33
0.866000,-0.0105,-0.1217,0,2,72.46,7.33
0.868000,0.0288,-0.1250,0,2,72.46,7.33
0.870000,-0.0382,-0.1276,0,2,72.46,7.33
0.872000,0.0287,-0.1290,0,2,72.46,7.33
0.874000,0.0108,-0.1289,0,2,72.46,7.33
0.876000,-0.0646,-0.1268,0,2,72.46,7.33
0.878000,-0.0118,-0.1224,0,2,72.46,7.33
0.880000,0.0123,-0.1159,0,2,72.46,7.33
0.882000,0.0175,-0.1075,0,2,72.46,7.33
0.884000,0.0445,-0.0977,0,2,72.46,7.33
0.886000,0.0115,-0.0872,0,2,72.46,7.33
0.888000,0.0372,-0.0764,0,2,72.46,7.33
0.890000,0.0662,-0.0659,0,2,72.46,7.33
0.892000,0.0542,-0.0560,0,2,72.46,7.33
0.894000,0.0759,-0.0468,0,2,72.46,7.33
0.896000,0.0858,-0.0382,0,2,72.46,7.33
0.898000,0.0867,-0.0299,0,2,72.46,7.33
0.900000,0.1076,-0.0218,0,2,72.46,7.33
0.902000,0.0864,-0.0136,0,2,72.46,7.33
0.904000,0.1080,-0.0052,0,2,72.46,7.33
0.906000,0.1388,0.0033,0,2,72.46,7.33
0.908000,0.1136,0.0117,0,2,72.46,7.33
0.910000,0.1579,0.0198,0,2,72.46,7.33
0.912000,0.1190,0.0273,0,2,72.46,7.33
0.914000,0.1520,0.0341,0,2,72.46,7.33
0.916000,0.1870,0.0400,0,2,72.46,7.33
0.918000,0.1781,0.0450,0,2,72.46,7.33
0.920000,0.1526,0.0493,0,2,72.46,7.33
0.922000,0.1567,0.0532,0,2,72.46,7.33
0.924000,0.1829,0.0568,0,2,72.46,7.33
0.926000,0.1740,0.0602,0,2,72.46,7.33
0.928000,0.1968,0.0633,0,2,72.46,7.33
0.930000,0.1756,0.0659,0,2,72.46,7.33
0.932000,0.1635,0.0678,0,2,72.46,7.33
0.934000,0.1865,0.0685,0,2,72.46,7.33
0.936000,0.1963,0.0676,0,2,72.46,7.33
0.938000,0.1956,0.0648,0,2,72.46,7.33
0.940000,0.2029,0.0602,0,2,72.46,7.33
0.942000,0.1528,0.0538,0,2,72.46,7.33
0.944000,0.1736,0.0462,0,2,72.46,7.33
0.946000,0.1403,0.0378,0,2,72.46,7.33
0.948000,0.1443,0.0291,0,2,72.46,7.33
0.950000,0.1374,0.0205,0,2,72.46,7.33
0.952000,0.1428,0.0123,0,2,72.46,7.33
0.954000,0.0900,0.0045,0,2,72.46,7.33
0.956000,0.1326,-0.0030,0,2,72.46,7.33
0.958000,0.1135,-0.0104,0,2,72.46,7.33
0.960000,0.0937,-0.0180,0,2,72.46,7.33
0.962000,0.1166,-0.0261,0,2,72.46,7.33
0.964000,0.0956,-0.0347,0,2,72.46,7.33
0.966000,0.0354,-0.0437,0,2,72.46,7.33
0.968000,0.0885,-0.0529,0,2,72.46,7.33
0.970000,0.0393,-0.0619,0,2,72.46,7.33
0.972000,0.0324,-0.0705,0,2,72.46,7.33
0.974000,0.0558,-0.0782,0,2,72.46,7.33
0.976000,0.0426,-0.0849,0,2,72.46,7.33
0.978000,0.0376,-0.0904,0,2,72.46,7.33
0.980000,0.0032,-0.0946,0,2,72.46,7.33
0.982000,0.0278,-0.0976,0,2,72.46,7.33
0.984000,0.0285,-0.0996,0,2,72.46,7.33
0.986000,-0.0007,-0.1012,0,2,72.46,7.33
0.988000,0.0142,-0.1027,0,2,72.46,7.33
0.990000,0.0221,-0.1046,0,2,72.46,7.33
0.992000,0.0030,-0.1072,0,2,72.46,7.33
0.994000,-0.0116,-0.1103,0,2,72.46,7.33
0.996000,0.0088,-0.1134,0,2,72.46,7.33
0.998000,-0.0132,-0.1149,0,2,72.46,7.33
1.000000,0.0210,-0.1128,0,2,72.46,7.33
1.002000,0.0629,-0.1036,0,2,72.46,7.33
1.004000,0.0438,-0.0834,0,2,72.46,7.33
1.006000,0.0778,-0.0476,0,2,72.46,7.33
1.008000,0.1197,0.0082,0,2,72.46,7.33
1.010000,0.1762,0.0878,0,2,72.46,7.33
1.012000,0.2942,0.1932,0,2,72.46,7.33
1.014000,0.4114,0.3241,0,2,72.46,7.33
1.016000,0.6330,0.4774,0,2,72.46,7.33
1.018000,0.7545,0.6474,0,2,72.46,7.33
1.020000,0.9098,0.8255,0,2,72.46,7.33
1.022000,1.1286,1.0013,0,2,72.46,7.33
1.024000,1.2875,1.1633,0,2,72.46,7.33
1.026000,1.4130,1.3000,0,2,72.46,7.33
1.028000,1.5430,1.4010,0,2,72.46,7.33
1.030000,1.5707,1.4582,1,2,72.46,7.33
1.032000,1.5947,1.4666,1,2,72.46,7.33
1.034000,1.5296,1.4249,1,2,72.46,7.33
1.036000,1.4662,1.3357,0,2,72.46,7.33
1.038000,1.3343,1.2052,0,2,72.46,7.33
1.040000,1.1779,1.0427,0,2,72.46,7.33
1.042000,1.0114,0.8598,0,2,72.46,7.33
1.044000,0.7596,0.6688,0,2,72.46,7.33
1.046000,0.5587,0.4822,0,2,72.46,7.33
1.048000,0.4171,0.3108,0,2,72.46,7.33
1.050000,0.2645,0.1629,0,2,72.46,7.33
1.052000,0.1580,0.0438,0,2,72.46,7.33
1.054000,0.0512,-0.0447,0,2,72.46,7.33
1.056000,0.0028,-0.1037,0,2,72.46,7.33
1.058000,-0.0011,-0.1368,0,2,72.46,7.33
1.060000,-0.0032,-0.1492,0,2,72.46,7.33
1.062000,-0.0171,-0.1468,0,2,72.46,7.33
1.064000,0.0043,-0.1352,0,2,72.46,7.33
1.066000,-0.0197,-0.1193,0,2,72.46,7.33
1.068000,0.0280,-0.1026,0,2,72.46,7.33
1.070000,0.0383,-0.0874,0,2,72.46,7.33
1.072000,0.0011,-0.0747,0,2,72.46,7.33
1.074000,0.0272,-0.0647,0,2,72.46,7.33
1.076000,0.0770,-0.0569,0,2,72.46,7.33
1.078000,0.0722,-0.0507,0,2,72.46,7.33
1.080000,0.0740,-0.0451,0,2,72.46,7.33
1.082000,0.0840,-0.0397,0,2,72.46,7.33
1.084000,0.0663,-0.0338,0,2,72.46,7.33
1.086000,0.1175,-0.0270,0,2,72.46,7.33
1.088000,0.0691,-0.0192,0,2,72.46,7.33
1.090000,0.0950,-0.0104,0,2,72.46,7.33
1.092000,0.1298,-0.0006,0,2,72.46,7.33
1.094000,0.1381,0.0098,0,2,72.46,7.33
1.096000,0.1235,0.0207,0,2,72.46,7.33
1.098000,0.1306,0.0318,0,2,72.46,7.33
1.100000,0.1863,0.0428,0,2,72.46,7.33
1.102000,0.1622,0.0535,0,2,72.46,7.33
1.104000,0.1940,0.0639,0,2,72.46,7.33
1.106000,0.1964,0.0739,0,2,72.46,7.33
1.108000,0.1798,0.0837,0,2,72.46,7.33
1.110000,0.1939,0.0933,0,2,72.46,7.33
1.112000,0.2079,0.1027,0,2,72.46,7.33
1.114000,0.2538,0.1120,0,2,72.46,7.33
1.116000,0.2260,0.1209,0,2,72.46,7.33
1.118000,0.2232,0.1294,0,2,72.46,7.33
1.120000,0.2895,0.1376,0,2,72.46,7.33
1.122000,0.2849,0.1454,0,2,72.46,7.33
1.124000,0.2384,0.1531,0,2,72.46,7.33
1.126000,0.2825,0.1610,0,2,72.46,7.33
1.128000,0.2831,0.1694,0,2,72.46,7.33
1.130000,0.2762,0.1786,0,2,72.46,7.33
1.132000,0.3066,0.1885,0,2,72.46,7.33
1.134000,0.2945,0.1989,0,2,72.46,7.33
1.136000,0.3180,0.2094,0,2,72.46,7.33
1.138000,0.3710,0.2194,0,2,72.46,7.33
1.140000,0.3470,0.2284,0,2,72.46,7.33
1.142000,0.3681,0.2359,0,2,72.46,7.33
1.144000,0.3492,0.2418,0,2,72.46,7.33
1.146000,0.3539,0.2460,0,2,72.46,7.33
1.148000,0.3437,0.2484,0,2,72.46,7.33
1.150000,0.3195,0.2492,0,2,72.46,7.33
1.152000,0.4026,0.2483,0,2,72.46,7.33
1.154000,0.3678,0.2457,0,2,72.46,7.33
1.156000,0.3898,0.2414,0,2,72.46,7.33
1.158000,0.3000,0.2357,0,2,72.46,7.33
1.160000,0.3700,0.2290,0,2,72.46,7.33
1.162000,0.3454,0.2216,0,2,72.46,7.33
1.164000,0.3243,0.2140,0,2,72.46,7.33
1.166000,0.3112,0.2067,0,2,72.46,7.33
1.168000,0.2982,0.2000,0,2,72.46,7.33
1.170000,0.2925,0.1938,0,2,72.46,7.33
1.172000,0.3031,0.1880,0,2,72.46,7.33
1.174000,0.3349,0.1823,0,2,72.46,7.33
1.176000,0.2849,0.1763,0,2,72.46,7.33
1.178000,0.2885,0.1698,0,2,72.46,7.33
1.180000,0.2628,0.1625,0,2,72.46,7.33
1.182000,0.2790,0.1542,0,2,72.46,7.33
1.184000,0.2379,0.1449,0,2,72.46,7.33
1.186000,0.2474,0.1346,0,2,72.46,7.33
1.188000,0.2432,0.1233,0,2,72.46,7.33
1.190000,0.2382,0.1112,0,2,72.46,7.33
1.192000,0.1985,0.0985,0,2,72.46,7.33
1.194000,0.1918,0.0857,0,2,72.46,7.33
1.196000,0.1921,0.0732,0,2,72.46,7.33
1.198000,0.2195,0.0613,0,2,72.46,7.33
1.200000,0.1442,0.0505,0,2,72.46,7.33
1.202000,0.1347,0.0409,0,2,72.46,7.33
1.204000,0.1115,0.0323,0,2,72.46,7.33
1.206000,0.1500,0.0244,0,2,72.46,7.33
1.208000,0.1356,0.0169,0,2,72.46,7.33
1.210000,0.1402,0.0091,0,2,72.46,7.33
1.212000,0.1203,0.0007,0,2,72.46,7.33
1.214000,0.1230,-0.0082,0,2,72.46,7.33
1.216000,0.0870,-0.0176,0,2,72.46,7.33
1.218000,0.0531,-0.0271,0,2,72.46,7.33
1.220000,0.0733,-0.0362,0,2,72.46,7.33
1.222000,0.0866,-0.0447,0,2,72.46,7.33
1.224000,0.0449,-0.0522,0,2,72.46,7.33
1.226000,0.0855,-0.0585,0,2,72.46,7.33
1.228000,0.0439,-0.0637,0,2,72.46,7.33
1.230000,0.0272,-0.0676,0,2,72.46,7.33
1.232000,0.0283,-0.0703,0,2,72.46,7.33
1.234000,0.0510,-0.0722,0,2,72.46,7.33
1.236000,0.0431,-0.0734,0,2,72.46,7.33
1.238000,0.0498,-0.0744,0,2,72.46,7.33
1.240000,0.0324,-0.0756,0,2,72.46,7.33
1.242000,0.0370,-0.0772,0,2,72.46,7.33
1.244000,0.0257,-0.0795,0,2,72.46,7.33
1.246000,0.0311,-0.0825,0,2,72.46,7.33
1.248000,0.0097,-0.0863,0,2,72.46,7.33
1.250000,0.0269,-0.0906,0,2,72.46,7.33
1.252000,0.0224,-0.0953,0,2,72.46,7.33
1.254000,0.0370,-0.0999,0,2,72.46,7.33
1.256000,-0.0072,-0.1041,0,2,72.46,7.33
1.258000,0.0191,-0.1075,0,2,72.46,7.33
1.260000,-0.0338,-0.1101,0,2,72.46,7.33
1.262000,-0.0100,-0.1118,0,2,72.46,7.33
1.264000,0.0146,-0.1127,0,2,72.46,7.33
1.266000,-0.0057,-0.1132,0,2,72.46,7.33
1.268000,0.0272,-0.1133,0,2,72.46,7.33
1.270000,-0.0263,-0.1134,0,2,72.46,7.33
1.272000,0.0065,-0.1133,0,2,72.46,7.33
1.274000,-0.0011,-0.1128,0,2,72.46,7.33
1.276000,0.0295,-0.1118,0,2,72.46,7.33
1.278000,-0.0163,-0.1100,0,2,72.46,7.33
1.280000,-0.0065,-0.1075,0,2,72.46,7.33
1.282000,-0.0101,-0.1046,0,2,72.46,7.33
1.284000,-0.0349,-0.1017,0,2,72.46,7.33
1.286000,0.0479,-0.0997,0,2,72.46,7.33
1.288000,0.0407,-0.0992,0,2,72.46,7.33
1.290000,0.0099,-0.1004,0,2,72.46,7.33
1.292000,0.0344,-0.1033,0,2,72.46,7.33
1.294000,-0.0228,-0.1074,0,2,72.46,7.33
1.296000,-0.0222,-0.1119,0,2,72.46,7.33
1.298000,0.0310,-0.1157,0,2,72.46,7.33
1.300000,-0.0257,-0.1182,0,2,72.46,7.33
1.302000,-0.0137,-0.1188,0,2,72.46,7.33
1.304000,-0.0197,-0.1173,0,2,72.46,7.33
1.306000,-0.0093,-0.1142,0,2,72.46,7.33
1.308000,-0.0069,-0.1100,0,2,72.46,7.33
1.310000,0.0265,-0.1056,0,2,72.46,7.33
1.312000,0.0137,-0.1019,0,2,72.46,7.33
1.314000,0.0222,-0.0995,0,2,72.46,7.33
1.316000,0.0093,-0.0986,0,2,72.46,7.33
1.318000,0.0104,-0.0993,0,2,72.46,7.33
1.320000,0.0002,-0.1013,0,2,72.46,7.33
1.322000,0.0041,-0.1040,0,2,72.46,7.33
1.324000,0.0227,-0.1069,0,2,72.46,7.33
1.326000,-0.0071,-0.1095,0,2,72.46,7.33
1.328000,-0.0269,-0.1113,0,2,72.46,7.33
1.330000,-0.0039,-0.1121,0,2,72.46,7.33
1.332000,-0.0177,-0.1120,0,2,72.46,7.33
1.334000,0.0307,-0.1114,0,2,72.46,7.33
1.336000,0.0233,-0.1106,0,2,72.46,7.33
1.338000,-0.0280,-0.1099,0,2,72.46,7.33
1.340000,0.0180,-0.1096,0,2,72.46,7.33
1.342000,-0.0052,-0.1098,0,2,72.46,7.33
1.344000,-0.0311,-0.1104,0,2,72.46,7.33
1.346000,0.0222,-0.1111,0,2,72.46,7.33
1.348000,0.0038,-0.1117,0,2,72.46,7.33
1.350000,-0.0026,-0.1118,0,2,72.46,7.33
1.352000,-0.0089,-0.1111,0,2,72.46,7.33
1.354000,-0.0075,-0.1095,0,2,72.46,7.33
1.356000,-0.0020,-0.1070,0,2,72.46,7.33
1.358000,-0.0045,-0.1039,0,2,72.46,7.33
1.360000,0.0533,-0.1006,0,2,72.46,7.33
1.362000,-0.0078,-0.0975,0,2,72.46,7.33
1.364000,0.0202,-0.0951,0,2,72.46,7.33
1.366000,-0.0231,-0.0938,0,2,72.46,7.33
1.368000,0.0561,-0.0938,0,2,72.46,7.33
1.370000,-0.0103,-0.0949,0,2,72.46,7.33
1.372000,0.0105,-0.0971,0,2,72.46,7.33
1.374000,0.0314,-0.1001,0,2,72.46,7.33
1.376000,-0.0034,-0.1033,0,2,72.46,7.33
1.378000,0.0274,-0.1063,0,2,72.46,7.33
1.380000,-0.0030,-0.1086,0,2,72.46,7.33
1.382000,-0.0334,-0.1098,0,2,72.46,7.33
1.384000,-0.0073,-0.1099,0,2,72.46,7.33
1.386000,-0.0006,-0.1090,0,2,72.46,7.33
1.388000,-0.0116,-0.1075,0,2,72.46,7.33
1.390000,0.0252,-0.1058,0,2,72.46,7.33
1.392000,0.0314,-0.1044,0,2,72.46,7.33
1.394000,0.0025,-0.1034,0,2,72.46,7.33
1.396000,0.0044,-0.1030,0,2,72.46,7.33
1.398000,-0.0188,-0.1031,0,2,72.46,7.33
1.400000,-0.0036,-0.1035,0,2,72.46,7.33
1.402000,0.0008,-0.1043,0,2,72.46,7.33
1.404000,0.0396,-0.1051,0,2,72.46,7.33
1.406000,-0.0157,-0.1059,0,2,72.46,7.33
1.408000,0.0129,-0.1064,0,2,72.46,7.33
1.410000,-0.0092,-0.1064,0,2,72.46,7.33
1.412000,-0.0104,-0.1058,0,2,72.46,7.33
1.414000,0.0117,-0.1044,0,2,72.46,7.33
1.416000,0.0060,-0.1025,0,2,72.46,7.33
1.418000,0.0192,-0.1002,0,2,72.46,7.33
1.420000,0.0109,-0.0979,0,2,72.46,7.33
1.422000,-0.0064,-0.0960,0,2,72.46,7.33
1.424000,0.0192,-0.0950,0,2,72.46,7.33
1.426000,0.0144,-0.0949,0,2,72.46,7.33
1.428000,0.0157,-0.0960,0,2,72.46,7.33
1.430000,0.0087,-0.0980,0,2,72.46,7.33
1.432000,0.0069,-0.1007,0,2,72.46,7.33
1.434000,-0.0035,-0.1036,0,2,72.46,7.33
1.436000,0.0111,-0.1063,0,2,72.46,7.33
1.438000,0.0019,-0.1084,0,2,72.46,7.33
1.440000,0.0104,-0.1095,0,2,72.46,7.33
1.442000,-0.0140,-0.1094,0,2,72.46,7.33
1.444000,-0.0113,-0.1083,0,2,72.46,7.33
1.446000,-0.0171,-0.1063,0,2,72.46,7.33
1.448000,0.0150,-0.1038,0,2,72.46,7.33
1.450000,0.0254,-0.1015,0,2,72.46,7.33
1.452000,-0.0312,-0.0996,0,2,72.46,7.33
1.454000,0.0410,-0.0988,0,2,72.46,7.33
1.456000,0.0296,-0.0990,0,2,72.46,7.33
1.458000,-0.0030,-0.1004,0,2,72.46,7.33
1.460000,0.0048,-0.1025,0,2,72.46,7.33
1.462000,-0.0269,-0.1050,0,2,72.46,7.33
1.464000,0.0184,-0.1075,0,2,72.46,7.33
1.466000,-0.0018,-0.1094,0,2,72.46,7.33
1.468000,-0.0169,-0.1107,0,2,72.46,7.33
1.470000,0.0094,-0.1110,0,2,72.46,7.33
1.472000,-0.0289,-0.1104,0,2,72.46,7.33
1.474000,0.0172,-0.1091,0,2,72.46,7.33
1.476000,0.0044,-0.1074,0,2,72.46,7.33
1.478000,-0.0018,-0.1057,0,2,72.46,7.33
1.480000,0.0140,-0.1043,0,2,72.46,7.33
1.482000,-0.0182,-0.1037,0,2,72.46,7.33
1.484000,0.0101,-0.1038,0,2,72.46,7.33
1.486000,0.0148,-0.1048,0,2,72.46,7.33
1.488000,-0.0221,-0.1062,0,2,72.46,7.33
1.490000,0.0404,-0.1078,0,2,72.46,7.33
1.492000,-0.0294,-0.1092,0,2,72.46,7.33
1.494000,-0.0259,-0.1101,0,2,72.46,7.33
1.496000,0.0011,-0.1102,0,2,72.46,7.33
1.498000,0.0006,-0.1096,0,2,72.46,7.33
1.500000,0.0145,-0.1086,0,2,72.46,7.33
1.502000,0.0062,-0.1073,0,2,72.46,7.33
1.504000,-0.0058,-0.1061,0,2,72.46,7.33
1.506000,-0.0004,-0.1051,0,2,72.46,7.33
1.508000,-0.0027,-0.1043,0,2,72.46,7.33
1.510000,0.0111,-0.1037,0,2,72.46,7.33
1.512000,-0.0337,-0.1033,0,2,72.46,7.33
1.514000,0.0121,-0.1030,0,2,72.46,7.33
1.516000,0.0100,-0.1030,0,2,72.46,7.33
1.518000,0.0301,-0.1033,0,2,72.46,7.33
1.520000,0.0197,-0.1038,0,2,72.46,7.33
1.522000,-0.0033,-0.1043,0,2,72.46,7.33
1.524000,-0.0265,-0.1048,0,2,72.46,7.33
1.526000,-0.0304,-0.1052,0,2,72.46,7.33
1.528000,0.0156,-0.1055,0,2,72.46,7.33
1.530000,-0.0021,-0.1058,0,2,72.46,7.33
1.532000,0.0290,-0.1063,0,2,72.46,7.33
1.534000,-0.0197,-0.1071,0,2,72.46,7.33
1.536000,0.0030,-0.1083,0,2,72.46,7.33
1.538000,0.0090,-0.1097,0,2,72.46,7.33
1.540000,0.0152,-0.1112,0,2,72.46,7.33
1.542000,-0.0175,-0.1123,0,2,72.46,7.33
1.544000,-0.0305,-0.1127,0,2,72.46,7.33
1.546000,-0.0164,-0.1122,0,2,72.46,7.33
1.548000,-0.0347,-0.1109,0,2,72.46,7.33
1.550000,0.0376,-0.1087,0,2,72.46,7.33
1.552000,0.0041,-0.1061,0,2,72.46,7.33
1.554000,0.0157,-0.1033,0,2,72.46,7.33
1.556000,-0.0113,-0.1007,0,2,72.46,7.33
1.558000,0.0242,-0.0984,0,2,72.46,7.33
1.560000,-0.0058,-0.0966,0,2,72.46,7.33
1.562000,-0.0066,-0.0954,0,2,72.46,7.33
1.564000,0.0217,-0.0949,0,2,72.46,7.33
1.566000,0.0358,-0.0950,0,2,72.46,7.33
1.568000,-0.0059,-0.0958,0,2,72.46,7.33
1.570000,-0.0283,-0.0970,0,2,72.46,7.33
1.572000,0.0224,-0.0986,0,2,72.46,7.33
1.574000,0.0409,-0.1004,0,2,72.46,7.33
1.576000,0.0013,-0.1024,0,2,72.46,7.33
1.578000,-0.0239,-0.1044,0,2,72.46,7.33
1.580000,0.0070,-0.1065,0,2,72.46,7.33
1.582000,-0.0351,-0.1087,0,2,72.46,7.33
1.584000,0.0424,-0.1110,0,2,72.46,7.33
1.586000,-0.0217,-0.1134,0,2,72.46,7.33
1.588000,-0.0236,-0.1157,0,2,72.46,7.33
1.590000,-0.0178,-0.1178,0,2,72.46,7.33
1.592000,0.0117,-0.1192,0,2,72.46,7.33
1.594000,-0.0029,-0.1196,0,2,72.46,7.33
1.596000,-0.0350,-0.1188,0,2,72.46,7.33
1.598000,-0.0208,-0.1168,0,2,72.46,7.33
1.600000,-0.0147,-0.1138,0,2,72.46,7.33
1.602000,0.0006,-0.1104,0,2,72.46,7.33
1.604000,-0.0109,-0.1071,0,2,72.46,7.33
1.606000,0.0104,-0.1045,0,2,72.46,7.33
1.608000,0.0237,-0.1031,0,2,72.46,7.33
1.610000,-0.0101,-0.1029,0,2,72.46,7.33
1.612000,0.0168,-0.1039,0,2,72.46,7.33
1.614000,-0.0330,-0.1056,0,2,72.46,7.33
1.616000,0.0105,-0.1076,0,2,72.46,7.33
1.618000,-0.0291,-0.1095,0,2,72.46,7.33
1.620000,0.0305,-0.1109,0,2,72.46,7.33
1.622000,-0.0050,-0.1116,0,2,72.46,7.33
1.624000,0.0026,-0.1114,0,2,72.46,7.33
1.626000,-0.0365,-0.1103,0,2,72.46,7.33
1.628000,-0.0159,-0.1084,0,2,72.46,7.33
1.630000,-0.0069,-0.1060,0,2,72.46,7.33
1.632000,0.0155,-0.1034,0,2,72.46,7.33
1.634000,0.0307,-0.1009,0,2,72.46,7.33
1.636000,-0.0079,-0.0989,0,2,72.46,7.33
1.638000,0.0109,-0.0974,0,2,72.46,7.33
1.640000,0.0255,-0.0968,0,2,72.46,7.33
1.642000,-0.0153,-0.0969,0,2,72.46,7.33
1.644000,0.0002,-0.0977,0,2,72.46,7.33
1.646000,-0.0023,-0.0990,0,2,72.46,7.33
1.648000,0.0307,-0.1008,0,2,72.46,7.33
1.650000,-0.0340,-0.1029,0,2,72.46,7.33
1.652000,0.0249,-0.1051,0,2,72.46,7.33
1.654000,-0.0164,-0.1074,0,2,72.46,7.33
1.656000,0.0167,-0.1093,0,2,72.46,7.33
1.658000,-0.0113,-0.1109,0,2,72.46,7.33
1.660000,0.0083,-0.1119,0,2,72.46,7.33
1.662000,-0.0360,-0.1122,0,2,72.46,7.33
1.664000,-0.0061,-0.1117,0,2,72.46,7.33
1.666000,0.0146,-0.1104,0,2,72.46,7.33
1.668000,-0.0243,-0.1086,0,2,72.46,7.33
1.670000,-0.0035,-0.1063,0,2,72.46,7.33
1.672000,-0.0113,-0.1039,0,2,72.46,7.33
1.674000,-0.0031,-0.1018,0,2,72.46,7.33
1.676000,0.0223,-0.1004,0,2,72.46,7.33
1.678000,0.0240,-0.0997,0,2,72.46,7.33
1.680000,0.0186,-0.0997,0,2,72.46,7.33
1.682000,-0.0072,-0.1003,0,2,72.46,7.33
1.684000,0.0095,-0.1010,0,2,72.46,7.33
1.686000,-0.0144,-0.1013,0,2,72.46,7.33
1.688000,-0.0269,-0.1008,0,2,72.46,7.33
1.690000,0.0230,-0.0995,0,2,72.46,7.33
1.692000,-0.0178,-0.0974,0,2,72.46,7.33
1.694000,0.0003,-0.0949,0,2,72.46,7.33
1.696000,0.0573,-0.0925,0,2,72.46,7.33
1.698000,0.0507,-0.0905,0,2,72.46,7.33
1.700000,-0.0091,-0.0890,0,2,72.46,7.33
1.702000,0.0315,-0.0878,0,2,72.46,7.33
1.704000,-0.0189,-0.0865,0,2,72.46,7.33
1.706000,0.0202,-0.0849,0,2,72.46,7.33
1.708000,-0.0030,-0.0825,0,2,72.46,7.33
1.710000,0.0361,-0.0793,0,2,72.46,7.33
1.712000,0.0414,-0.0753,0,2,72.46,7.33
1.714000,0.0254,-0.0707,0,2,72.46,7.33
1.716000,0.0450,-0.0658,0,2,72.46,7.33
1.718000,0.0660,-0.0606,0,2,72.46,7.33
1.720000,0.0567,-0.0553,0,2,72.46,7.33
1.722000,0.0467,-0.0499,0,2,72.46,7.33
1.724000,0.0303,-0.0440,0,2,72.46,7.33
1.726000,0.0622,-0.0376,0,2,72.46,7.33
1.728000,0.0841,-0.0305,0,2,72.46,7.33
1.730000,0.0957,-0.0225,0,2,72.46,7.33
1.732000,0.0649,-0.0136,0,2,72.46,7.33
1.734000,0.1148,-0.0039,0,2,72.46,7.33
1.736000,0.1218,0.0064,0,2,72.46,7.33
1.738000,0.1100,0.0170,0,2,72.46,7.33
1.740000,0.1430,0.0275,0,2,72.46,7.33
1.742000,0.1343,0.0377,0,2,72.46,7.33
1.744000,0.1715,0.0470,0,2,72.46,7.33
1.746000,0.0997,0.0550,0,2,72.46,7.33
1.748000,0.1936,0.0616,0,2,72.46,7.33
1.750000,0.1860,0.0664,0,2,72.46,7.33
1.752000,0.1663,0.0696,0,2,72.46,7.33
1.754000,0.1574,0.0712,0,2,72.46,7.33
1.756000,0.1832,0.0715,0,2,72.46,7.33
1.758000,0.2093,0.0709,0,2,72.46,7.33
1.760000,0.1761,0.0699,0,2,72.46,7.33
1.762000,0.1628,0.0689,0,2,72.46,7.33
1.764000,0.1694,0.0683,0,2,72.46,7.33
1.766000,0.1213,0.0681,0,2,72.46,7.33
1.768000,0.1805,0.0681,0,2,72.46,7.33
1.770000,0.1847,0.0679,0,2,72.46,7.33
1.772000,0.1745,0.0668,0,2,72.46,7.33
1.774000,0.1833,0.0642,0,2,72.46,7.33
1.776000,0.1786,0.0596,0,2,72.46,7.33
1.778000,0.1587,0.0530,0,2,72.46,7.33
1.780000,0.1365,0.0443,0,2,72.46,7.33
1.782000,0.1139,0.0338,0,2,72.46,7.33
1.784000,0.1313,0.0220,0,2,72.46,7.33
1.786000,0.1186,0.0096,0,2,72.46,7.33
1.788000,0.1126,-0.0029,0,2,72.46,7.33
1.790000,0.0826,-0.0148,0,2,72.46,7.33
1.792000,0.0771,-0.0256,0,2,72.46,7.33
1.794000,0.0619,-0.0349,0,2,72.46,7.33
1.796000,0.0738,-0.0424,0,2,72.46,7.33
1.798000,0.0452,-0.0484,0,2,72.46,7.33
1.800000,0.0474,-0.0531,0,2,72.46,7.33
1.802000,0.0394,-0.0571,0,2,72.46,7.33
1.804000,0.0673,-0.0609,0,2,72.46,7.33
1.806000,0.0134,-0.0650,0,2,72.46,7.33
1.808000,0.0464,-0.0694,0,2,72.46,7.33
1.810000,0.0594,-0.0740,0,2,72.46,7.33
1.812000,0.0054,-0.0786,0,2,72.46,7.33
1.814000,0.0414,-0.0826,0,2,72.46,7.33
1.816000,-0.0015,-0.0857,0,2,72.46,7.33
1.818000,-0.0037,-0.0878,0,2,72.46,7.33
1.820000,0.0040,-0.0890,0,2,72.46,7.33
1.822000,0.0113,-0.0897,0,2,72.46,7.33
1.824000,0.0053,-0.0901,0,2,72.46,7.33
1.826000,0.0323,-0.0900,0,2,72.46,7.33
1.828000,0.0455,-0.0885,0,2,72.46,7.33
1.830000,0.0144,-0.0835,0,2,72.46,7.33
1.832000,0.0270,-0.0720,0,2,72.46,7.33
1.834000,0.0792,-0.0500,0,2,72.46,7.33
1.836000,0.0621,-0.0133,0,2,72.46,7.33
1.838000,0.1828,0.0424,0,2,72.46,7.33
1.840000,0.2083,0.1202,0,2,72.46,7.33
1.842000,0.3170,0.2218,0,2,72.46,7.33
1.844000,0.4339,0.3471,0,2,72.46,7.33
1.846000,0.5705,0.4933,0,2,72.46,7.33
1.848000,0.7733,0.6552,0,2,72.46,7.33
1.850000,0.9283,0.8252,0,2,72.46,7.33
1.852000,1.0893,0.9940,0,2,72.46,7.33
1.854000,1.2521,1.1512,0,2,72.46,7.33
1.856000,1.4071,1.2860,0,2,72.46,7.33
1.858000,1.4777,1.3885,0,2,72.46,7.33
1.860000,1.5551,1.4504,1,2,72.46,7.33
1.862000,1.6090,1.4661,1,2,72.46,7.33
1.864000,1.5165,1.4334,1,2,72.46,7.33
1.866000,1.4541,1.3535,0,2,72.46,7.33
1.868000,1.3710,1.2314,0,2,72.46,7.33
1.870000,1.1959,1.0756,0,2,72.46,7.33
1.872000,0.9656,0.8967,0,2,72.46,7.33
1.874000,0.8323,0.7072,0,2,72.46,7.33
1.876000,0.6270,0.5195,0,2,72.46,7.33
1.878000,0.4489,0.3449,0,2,72.46,7.33
1.880000,0.2510,0.1926,0,2,72.46,7.33
1.882000,0.1615,0.0688,0,2,72.46,7.33
1.884000,0.0451,-0.0240,0,2,72.46,7.33
1.886000,0.0056,-0.0864,0,2,72.46,7.33
1.888000,0.0227,-0.1219,0,2,72.46,7.33
1.890000,-0.0433,-0.1358,0,2,72.46,7.33
1.892000,-0.0150,-0.1343,0,2,72.46,7.33
1.894000,0.0052,-0.1237,0,2,72.46,7.33
1.896000,0.0284,-0.1090,0,2,72.46,7.33
1.898000,0.0116,-0.0942,0,2,72.46,7.33
1.900000,0.0216,-0.0812,0,2,72.46,7.33
1.902000,0.0136,-0.0709,0,2,72.46,7.33
1.904000,0.0202,-0.0631,0,2,72.46,7.33
1.906000,0.0313,-0.0568,0,2,72.46,7.33
1.908000,0.0459,-0.0511,0,2,72.46,7.33
1.910000,0.0580,-0.0450,0,2,72.46,7.33
1.912000,0.0823,-0.0380,0,2,72.46,7.33
1.914000,0.0693,-0.0299,0,2,72.46,7.33
1.916000,0.0767,-0.0208,0,2,72.46,7.33
1.918000,0.1124,-0.0110,0,2,72.46,7.33
1.920000,0.0984,-0.0008,0,2,72.46,7.33
1.922000,0.1248,0.0093,0,2,72.46,7.33
1.924000,0.1188,0.0193,0,2,72.46,7.33
1.926000,0.1489,0.0290,0,2,72.46,7.33
1.928000,0.1145,0.0387,0,2,72.46,7.33
1.930000,0.1241,0.0483,0,2,72.46,7.33
1.932000,0.1986,0.0580,0,2,72.46,7.33
1.934000,0.1602,0.0678,0,2,72.46,7.33
1.936000,0.1458,0.0774,0,2,72.46,7.33
1.938000,0.2357,0.0868,0,2,72.46,7.33
1.940000,0.1970,0.0958,0,2,72.46,7.33
1.942000,0.2313,0.1043,0,2,72.46,7.33
1.944000,0.2317,0.1125,0,2,72.46,7.33
1.946000,0.1843,0.1208,0,2,72.46,7.33
1.948000,0.2042,0.1294,0,2,72.46,7.33
1.950000,0.2351,0.1385,0,2,72.46,7.33
1.952000,0.2778,0.1482,0,2,72.46,7.33
1.954000,0.2688,0.1584,0,2,72.46,7.33
1.956000,0.2887,0.1688,0,2,72.46,7.33
1.958000,0.2703,0.1792,0,2,72.46,7.33
1.960000,0.2870,0.1893,0,2,72.46,7.33
1.962000,0.2897,0.1990,0,2,72.46,7.33
1.964000,0.3355,0.2080,0,2,72.46,7.33
1.966000,0.3553,0.2163,0,2,72.46,7.33
1.968000,0.2915,0.2239,0,2,72.46,7.33
1.970000,0.3015,0.2307,0,2,72.46,7.33
1.972000,0.3245,0.2366,0,2,72.46,7.33
1.974000,0.3801,0.2415,0,2,72.46,7.33
1.976000,0.3457,0.2451,0,2,72.46,7.33
1.978000,0.3841,0.2471,0,2,72.46,7.33
1.980000,0.3382,0.2475,0,2,72.46,7.33
1.982000,0.3423,0.2463,0,2,72.46,7.33
1.984000,0.3423,0.2437,0,2,72.46,7.33
1.986000,0.3531,0.2401,0,2,72.46,7.33
1.988000,0.3223,0.2358,0,2,72.46,7.33
1.990000,0.3390,0.2313,0,2,72.46,7.33
1.992000,0.3287,0.2268,0,2,72.46,7.33
1.994000,0.3304,0.2225,0,2,72.46,7.33
1.996000,0.2994,0.2186,0,2,72.46,7.33
1.998000,0.3601,0.2148,0,2,72.46,7.33
2.000000,0.2890,0.2110,0,2,72.46,7.33
2.002000,0.3465,0.2068,0,2,72.46,7.33
2.004000,0.2851,0.2020,0,2,72.46,7.33
2.006000,0.3132,0.1962,0,2,72.46,7.33
2.008000,0.2297,0.1890,0,2,72.46,7.33
2.010000,0.2912,0.1801,0,2,72.46,7.33
2.012000,0.2883,0.1694,0,2,72.46,7.33
2.014000,0.2886,0.1568,0,2,72.46,7.33
2.016000,0.2611,0.1429,0,2,72.46,7.33
2.018000,0.2446,0.1282,0,2,72.46,7.33
2.020000,0.1936,0.1136,0,2,72.46,7.33
2.022000,0.1838,0.1001,0,2,72.46,7.33
2.024000,0.1879,0.0881,0,2,72.46,7.33
2.026000,0.1840,0.0782,0,2,72.46,7.33
2.028000,0.1813,0.0701,0,2,72.46,7.33
2.030000,0.1583,0.0635,0,2,72.46,7.33
2.032000,0.1511,0.0576,0,2,72.46,7.33
2.034000,0.1751,0.0516,0,2,72.46,7.33
2.036000,0.1306,0.0450,0,2,72.46,7.33
2.038000,0.1513,0.0370,0,2,72.46,7.33
2.040000,0.1735,0.0276,0,2,72.46,7.33
2.042000,0.0978,0.0167,0,2,72.46,7.33
2.044000,0.0932,0.0048,0,2,72.46,7.33
2.046000,0.0991,-0.0075,0,2,72.46,7.33
2.048000,0.1038,-0.0194,0,2,72.46,7.33
2.050000,0.0561,-0.0303,0,2,72.46,7.33
2.052000,0.0495,-0.0398,0,2,72.46,7.33
2.054000,0.0109,-0.0475,0,2,72.46,7.33
2.056000,0.0871,-0.0535,0,2,72.46,7.33
2.058000,0.0841,-0.0581,0,2,72.46,7.33
2.060000,0.0523,-0.0616,0,2,72.46,7.33
2.062000,0.0177,-0.0643,0,2,72.46,7.33
2.064000,0.0435,-0.0665,0,2,72.46,7.33
2.066000,0.0353,-0.0683,0,2,72.46,7.33
2.068000,-0.0055,-0.0701,0,2,72.46,7.33
2.070000,0.0196,-0.0720,0,2,72.46,7.33
2.072000,0.0518,-0.0743,0,2,72.46,7.33
2.074000,0.0490,-0.0773,0,2,72.46,7.33
2.076000,0.0041,-0.0808,0,2,72.46,7.33
2.078000,0.0540,-0.0846,0,2,72.46,7.33
2.080000,0.0164,-0.0884,0,2,72.46,7.33
2.082000,-0.0161,-0.0917,0,2,72.46,7.33
2.084000,0.0401,-0.0941,0,2,72.46,7.33
2.086000,-0.0462,-0.0955,0,2,72.46,7.33
2.088000,0.0022,-0.0960,0,2,72.46,7.33
2.090000,0.0323,-0.0960,0,2,72.46,7.33
2.092000,0.0068,-0.0960,0,2,72.46,7.33
2.094000,0.0072,-0.0967,0,2,72.46,7.33
2.096000,-0.0015,-0.0986,0,2,72.46,7.33
2.098000,0.0235,-0.1017,0,2,72.46,7.33
2.100000,0.0080,-0.1060,0,2,72.46,7.33
2.102000,-0.0155,-0.1112,0,2,72.46,7.33
2.104000,-0.0308,-0.1165,0,2,72.46,7.33
2.106000,0.0006,-0.1212,0,2,72.46,7.33
2.108000,-0.0298,-0.1248,0,2,72.46,7.33
2.110000,-0.0179,-0.1266,0,2,72.46,7.33
2.112000,-0.0270,-0.1266,0,2,72.46,7.33
2.114000,-0.0642,-0.1247,0,2,72.46,7.33
2.116000,0.0001,-0.1216,0,2,72.46,7.33
2.118000,-0.0296,-0.1180,0,2,72.46,7.33
2.120000,0.0312,-0.1145,0,2,72.46,7.33
2.122000,0.0182,-0.1118,0,2,72.46,7.33
2.124000,-0.0316,-0.1102,0,2,72.46,7.33
2.126000,0.0186,-0.1095,0,2,72.46,7.33
2.128000,-0.0363,-0.1095,0,2,72.46,7.33
2.130000,-0.0160,-0.1097,0,2,72.46,7.33
2.132000,-0.0114,-0.1096,0,2,72.46,7.33
2.134000,0.0006,-0.1091,0,2,72.46,7.33
2.136000,-0.0110,-0.1081,0,2,72.46,7.33
2.138000,-0.0173,-0.1069,0,2,72.46,7.33
2.140000,0.0120,-0.1058,0,2,72.46,7.33
2.142000,0.0085,-0.1050,0,2,72.46,7.33
2.144000,0.0285,-0.1047,0,2,72.46,7.33
2.146000,-0.0105,-0.1048,0,2,72.46,7.33
2.148000,0.0067,-0.1047,0,2,72.46,7.33
2.150000,-0.0188,-0.1040,0,2,72.46,7.33
2.152000,-0.0108,-0.1023,0,2,72.46,7.33
2.154000,-0.0069,-0.0993,0,2,72.46,7.33
2.156000,-0.0103,-0.0952,0,2,72.46,7.33
2.158000,0.0264,-0.0907,0,2,72.46,7.33
2.160000,0.0262,-0.0865,0,2,72.46,7.33
2.162000,0.0487,-0.0834,0,2,72.46,7.33
2.164000,0.0215,-0.0822,0,2,72.46,7.33
2.166000,0.0010,-0.0830,0,2,72.46,7.33
2.168000,0.0111,-0.0859,0,2,72.46,7.33
2.170000,0.0485,-0.0904,0,2,72.46,7.33
2.172000,-0.0059,-0.0956,0,2,72.46,7.33
2.174000,-0.0120,-0.1008,0,2,72.46,7.33
2.176000,-0.0109,-0.1053,0,2,72.46,7.33
2.178000,-0.0100,-0.1084,0,2,72.46,7.33
2.180000,-0.0004,-0.1101,0,2,72.46,7.33
2.182000,-0.0055,-0.1104,0,2,72.46,7.33
2.184000,-0.0081,-0.1098,0,2,72.46,7.33
2.186000,0.0031,-0.1086,0,2,72.46,7.33
2.188000,0.0286,-0.1073,0,2,72.46,7.33
2.190000,-0.0267,-0.1061,0,2,72.46,7.33
2.192000,-0.0132,-0.1050,0,2,72.46,7.33
2.194000,0.0107,-0.1041,0,2,72.46,7.33
2.196000,-0.0156,-0.1031,0,2,72.46,7.33
2.198000,-0.0219,-0.1020,0,2,72.46,7.33
2.200000,0.0469,-0.1009,0,2,72.46,7.33
2.202000,-0.0078,-0.0998,0,2,72.46,7.33
2.204000,0.0204,-0.0987,0,2,72.46,7.33
2.206000,-0.0232,-0.0977,0,2,72.46,7.33
2.208000,0.0441,-0.0969,0,2,72.46,7.33
2.210000,-0.0150,-0.0962,0,2,72.46,7.33
2.212000,-0.0144,-0.0956,0,2,72.46,7.33
2.214000,0.0088,-0.0952,0,2,72.46,7.33
2.216000,0.0400,-0.0950,0,2,72.46,7.33
2.218000,-0.0011,-0.0952,0,2,72.46,7.33
2.220000,-0.0128,-0.0957,0,2,72.46,7.33
2.222000,0.0241,-0.0966,0,2,72.46,7.33
2.224000,0.0279,-0.0977,0,2,72.46,7.33
2.226000,-0.0005,-0.0991,0,2,72.46,7.33
2.228000,-0.0149,-0.1006,0,2,72.46,7.33
2.230000,-0.0198,-0.1021,0,2,72.46,7.33
2.232000,0.0074,-0.1035,0,2,72.46,7.33
2.234000,0.0128,-0.1048,0,2,72.46,7.33
2.236000,0.0115,-0.1061,0,2,72.46,7.33
2.238000,-0.0255,-0.1073,0,2,72.46,7.33
2.240000,-0.0135,-0.1084,0,2,72.46,7.33
2.242000,0.0221,-0.1093,0,2,72.46,7.33
2.244000,-0.0086,-0.1099,0,2,72.46,7.33
2.246000,-0.0109,-0.1101,0,2,72.46,7.33
2.248000,-0.0101,-0.1099,0,2,72.46,7.33
2.250000,-0.0201,-0.1090,0,2,72.46,7.33
2.252000,0.0116,-0.1077,0,2,72.46,7.33
2.254000,-0.0307,-0.1060,0,2,72.46,7.33
2.256000,0.0229,-0.1041,0,2,72.46,7.33
2.258000,0.0089,-0.1021,0,2,72.46,7.33
2.260000,0.0135,-0.1004,0,2,72.46,7.33
2.262000,-0.0181,-0.0991,0,2,72.46,7.33
2.264000,-0.0135,-0.0982,0,2,72.46,7.33
2.266000,0.0326,-0.0979,0,2,72.46,7.33
2.268000,-0.0059,-0.0982,0,2,72.46,7.33
2.270000,0.0228,-0.0991,0,2,72.46,7.33
2.272000,0.0040,-0.1003,0,2,72.46,7.33
2.274000,-0.0070,-0.1015,0,2,72.46,7.33
2.276000,-0.0179,-0.1025,0,2,72.46,7.33
2.278000,0.0017,-0.1030,0,2,72.46,7.33
2.280000,0.0230,-0.1030,0,2,72.46,7.33
2.282000,0.0066,-0.1023,0,2,72.46,7.33
2.284000,-0.0320,-0.1013,0,2,72.46,7.33
2.286000,0.0248,-0.1002,0,2,72.46,7.33
2.288000,-0.0153,-0.0994,0,2,72.46,7.33
2.290000,0.0276,-0.0993,0,2,72.46,7.33
2.292000,-0.0109,-0.1000,0,2,72.46,7.33
2.294000,0.0086,-0.1017,0,2,72.46,7.33
2.296000,0.0034,-0.1042,0,2,72.46,7.33
2.298000,-0.0219,-0.1072,0,2,72.46,7.33
2.300000,0.0343,-0.1102,0,2,72.46,7.33
2.302000,-0.0397,-0.1127,0,2,72.46,7.33
2.304000,0.0032,-0.1142,0,2,72.46,7.33
2.306000,-0.0250,-0.1144,0,2,72.46,7.33
2.308000,-0.0298,-0.1133,0,2,72.46,7.33
2.310000,-0.0083,-0.1112,0,2,72.46,7.33
2.312000,0.0063,-0.1084,0,2,72.46,7.33
2.314000,0.0136,-0.1055,0,2,72.46,7.33
2.316000,0.0074,-0.1029,0,2,72.46,7.33
2.318000,0.0131,-0.1009,0,2,72.46,7.33
2.320000,-0.0095,-0.0997,0,2,72.46,7.33
2.322000,-0.0451,-0.0993,0,2,72.46,7.33
2.324000,0.0289,-0.0999,0,2,72.46,7.33
2.326000,0.0157,-0.1014,0,2,72.46,7.33
2.328000,-0.0041,-0.1038,0,2,72.46,7.33
2.330000,0.0027,-0.1069,0,2,72.46,7.33
2.332000,0.0079,-0.1104,0,2,72.46,7.33
2.334000,-0.0239,-0.1138,0,2,72.46,7.33
2.336000,-0.0098,-0.1166,0,2,72.46,7.33
2.338000,-0.0605,-0.1183,0,2,72.46,7.33
2.340000,-0.0062,-0.1188,0,2,72.46,7.33
2.342000,0.0227,-0.1178,0,2,72.46,7.33
2.344000,-0.0139,-0.1153,0,2,72.46,7.33
2.346000,-0.0030,-0.1117,0,2,72.46,7.33
2.348000,-0.0035,-0.1071,0,2,72.46,7.33
2.350000,-0.0370,-0.1019,0,2,72.46,7.33
2.352000,-0.0002,-0.0966,0,2,72.46,7.33
2.354000,0.0352,-0.0918,0,2,72.46,7.33
2.356000,0.0365,-0.0881,0,2,72.46,7.33
2.358000,-0.0165,-0.0858,0,2,72.46,7.33
2.360000,0.0463,-0.0852,0,2,72.46,7.33
2.362000,0.0077,-0.0864,0,2,72.46,7.33
2.364000,-0.0137,-0.0890,0,2,72.46,7.33
2.366000,0.0426,-0.0927,0,2,72.46,7.33
2.368000,0.0289,-0.0970,0,2,72.46,7.33
2.370000,-0.0299,-0.1012,0,2,72.46,7.33
2.372000,-0.0240,-0.1048,0,2,72.46,7.33
2.374000,0.0197,-0.1074,0,2,72.46,7.33
2.376000,0.0103,-0.1088,0,2,72.46,7.33
2.378000,-0.0361,-0.1088,0,2,72.46,7.33
2.380000,-0.0077,-0.1078,0,2,72.46,7.33
2.382000,-0.0064,-0.1062,0,2,72.46,7.33
2.384000,0.0092,-0.1043,0,2,72.46,7.33
2.386000,0.0051,-0.1027,0,2,72.46,7.33
2.388000,0.0178,-0.1015,0,2,72.46,7.33
2.390000,0.0086,-0.1008,0,2,72.46,7.33
2.392000,-0.0143,-0.1005,0,2,72.46,7.33
2.394000,0.0029,-0.1003,0,2,72.46,7.33
2.396000,0.0045,-0.0997,0,2,72.46,7.33
2.398000,-0.0336,-0.0986,0,2,72.46,7.33
2.400000,0.0468,-0.0970,0,2,72.46,7.33
2.402000,-0.0224,-0.0949,0,2,72.46,7.33
2.404000,0.0223,-0.0928,0,2,72.46,7.33
2.406000,0.0340,-0.0910,0,2,72.46,7.33
2.408000,-0.0023,-0.0899,0,2,72.46,7.33
2.410000,0.0228,-0.0896,0,2,72.46,7.33
2.412000,-0.0120,-0.0903,0,2,72.46,7.33
2.414000,0.0366,-0.0917,0,2,72.46,7.33
2.416000,0.0104,-0.0937,0,2,72.46,7.33
2.418000,-0.0023,-0.0958,0,2,72.46,7.33
2.420000,-0.0029,-0.0977,0,2,72.46,7.33
2.422000,0.0168,-0.0991,0,2,72.46,7.33
2.424000,-0.0136,-0.0998,0,2,72.46,7.33
2.426000,0.0011,-0.0998,0,2,72.46,7.33
2.428000,-0.0034,-0.0995,0,2,72.46,7.33
2.430000,0.0143,-0.0990,0,2,72.46,7.33
2.432000,0.0260,-0.0985,0,2,72.46,7.33
2.434000,0.0288,-0.0983,0,2,72.46,7.33
2.436000,-0.0559,-0.0983,0,2,72.46,7.33
2.438000,0.0143,-0.0984,0,2,72.46,7.33
2.440000,0.0219,-0.0986,0,2,72.46,7.33
2.442000,-0.0106,-0.0987,0,2,72.46,7.33
2.444000,-0.0067,-0.0987,0,2,72.46,7.33
2.446000,0.0262,-0.0987,0,2,72.46,7.33
2.448000,0.0055,-0.0987,0,2,72.46,7.33
2.450000,0.0003,-0.0987,0,2,72.46,7.33
2.452000,0.0047,-0.0989,0,2,72.46,7.33
2.454000,-0.0007,-0.0991,0,2,72.46,7.33
2.456000,-0.0111,-0.0994,0,2,72.46,7.33
2.458000,0.0253,-0.0997,0,2,72.46,7.33
2.460000,0.0061,-0.0999,0,2,72.46,7.33
2.462000,-0.0268,-0.1001,0,2,72.46,7.33
2.464000,0.0072,-0.1003,0,2,72.46,7.33
2.466000,0.0007,-0.1006,0,2,72.46,7.33
2.468000,0.0220,-0.1010,0,2,72.46,7.33
2.470000,0.0150,-0.1017,0,2,72.46,7.33
2.472000,-0.0213,-0.1024,0,2,72.46,7.33
2.474000,0.0141,-0.1030,0,2,72.46,7.33
2.476000,-0.0292,-0.1035,0,2,72.46,7.33
2.478000,0.0031,-0.1037,0,2,72.46,7.33
2.480000,-0.0045,-0.1035,0,2,72.46,7.33
2.482000,0.0036,-0.1032,0,2,72.46,7.33
2.484000,-0.0123,-0.1030,0,2,72.46,7.33
2.486000,0.0423,-0.1029,0,2,72.46,7.33
2.488000,-0.0126,-0.1031,0,2,72.46,7.33
2.490000,0.0023,-0.1037,0,2,72.46,7.33
2.492000,-0.0271,-0.1047,0,2,72.46,7.33
2.494000,-0.0384,-0.1059,0,2,72.46,7.33
2.496000,0.0400,-0.1073,0,2,72.46,7.33
2.498000,0.0015,-0.1086,0,2,72.46,7.33
2.500000,-0.0048,-0.1097,0,2,72.46,7.33
2.502000,-0.0237,-0.1101,0,2,72.46,7.33
2.504000,0.0081,-0.1096,0,2,72.46,7.33
2.506000,-0.0201,-0.1079,0,2,72.46,7.33
2.508000,-0.0039,-0.1050,0,2,72.46,7.33
2.510000,0.0063,-0.1012,0,2,72.46,7.33
2.512000,0.0094,-0.0968,0,2,72.46,7.33
2.514000,-0.0383,-0.0926,0,2,72.46,7.33
2.516000,0.0527,-0.0892,0,2,72.46,7.33
2.518000,0.0010,-0.0870,0,2,72.46,7.33
2.520000,0.0357,-0.0866,0,2,72.46,7.33
2.522000,0.0233,-0.0878,0,2,72.46,7.33
2.524000,0.0265,-0.0902,0,2,72.46,7.33
2.526000,-0.0107,-0.0932,0,2,72.46,7.33
2.528000,-0.0292,-0.0960,0,2,72.46,7.33
2.530000,0.0400,-0.0978,0,2,72.46,7.33
2.532000,0.0067,-0.0980,0,2,72.46,7.33
2.534000,-0.0099,-0.0964,0,2,72.46,7.33
2.536000,-0.0179,-0.0930,0,2,72.46,7.33
2.538000,0.0338,-0.0882,0,2,72.46,7.33
2.540000,0.0213,-0.0822,0,2,72.46,7.33
2.542000,0.0234,-0.0758,0,2,72.46,7.33
2.544000,0.0509,-0.0692,0,2,72.46,7.33
2.546000,0.0422,-0.0627,0,2,72.46,7.33
2.548000,0.0605,-0.0563,0,2,72.46,7.33
2.550000,0.0173,-0.0499,0,2,72.46,7.33
2.552000,0.0745,-0.0432,0,2,72.46,7.33
2.554000,0.0704,-0.0359,0,2,72.46,7.33
2.556000,0.0246,-0.0279,0,2,72.46,7.33
2.558000,0.1233,-0.0192,0,2,72.46,7.33
2.560000,0.0768,-0.0099,0,2,72.46,7.33
2.562000,0.1043,-0.0002,0,2,72.46,7.33
2.564000,0.1307,0.0096,0,2,72.46,7.33
2.566000,0.1006,0.0194,0,2,72.46,7.33
2.568000,0.1627,0.0292,0,2,72.46,7.33
2.570000,0.1344,0.0388,0,2,72.46,7.33
2.572000,0.1390,0.0483,0,2,72.46,7.33
2.574000,0.1500,0.0576,0,2,72.46,7.33
2.576000,0.1561,0.0665,0,2,72.46,7.33
2.578000,0.1838,0.0747,0,2,72.46,7.33
2.580000,0.1813,0.0817,0,2,72.46,7.33
2.582000,0.1994,0.0870,0,2,72.46,7.33
2.584000,0.1873,0.0902,0,2,72.46,7.33
2.586000,0.1925,0.0911,0,2,72.46,7.33
2.588000,0.2011,0.0897,0,2,72.46,7.33
2.590000,0.1959,0.0863,0,2,72.46,7.33
2.592000,0.1725,0.0816,0,2,72.46,7.33
2.594000,0.1934,0.0760,0,2,72.46,7.33
2.596000,0.1560,0.0705,0,2,72.46,7.33
2.598000,0.1661,0.0657,0,2,72.46,7.33
2.600000,0.1702,0.0617,0,2,72.46,7.33
2.602000,0.1349,0.0585,0,2,72.46,7.33
2.604000,0.1195,0.0557,0,2,72.46,7.33
2.606000,0.1957,0.0525,0,2,72.46,7.33
2.608000,0.1729,0.0481,0,2,72.46,7.33
2.610000,0.1447,0.0420,0,2,72.46,7.33
2.612000,0.1188,0.0339,0,2,72.46,7.33
2.614000,0.1597,0.0240,0,2,72.46,7.33
2.616000,0.1078,0.0130,0,2,72.46,7.33
2.618000,0.1052,0.0018,0,2,72.46,7.33
2.620000,0.0442,-0.0089,0,2,72.46,7.33
2.622000,0.0628,-0.0185,0,2,72.46,7.33
2.624000,0.0935,-0.0267,0,2,72.46,7.33
2.626000,0.0906,-0.0337,0,2,72.46,7.33
2.628000,0.0679,-0.0400,0,2,72.46,7.33
2.630000,0.0639,-0.0459,0,2,72.46,7.33
2.632000,0.0393,-0.0519,0,2,72.46,7.33
2.634000,0.0428,-0.0580,0,2,72.46,7.33
2.636000,0.0111,-0.0642,0,2,72.46,7.33
2.638000,0.0473,-0.0704,0,2,72.46,7.33
2.640000,0.0477,-0.0763,0,2,72.46,7.33
2.642000,0.0315,-0.0817,0,2,72.46,7.33
2.644000,0.0018,-0.0862,0,2,72.46,7.33
2.646000,-0.0450,-0.0899,0,2,72.46,7.33
2.648000,0.0186,-0.0930,0,2,72.46,7.33
2.650000,0.0101,-0.0955,0,2,72.46,7.33
2.652000,0.0278,-0.0977,0,2,72.46,7.33
2.654000,0.0002,-0.0989,0,2,72.46,7.33
2.656000,0.0151,-0.0982,0,2,72.46,7.33
2.658000,-0.0074,-0.0937,0,2,72.46,7.33
2.660000,-0.0044,-0.0823,0,2,72.46,7.33
2.662000,0.0820,-0.0607,0,2,72.46,7.33
2.664000,0.0452,-0.0249,0,2,72.46,7.33
2.666000,0.2018,0.0291,0,2,72.46,7.33
2.668000,0.1968,0.1047,0,2,72.46,7.33
2.670000,0.2826,0.2040,0,2,72.46,7.33
2.672000,0.4131,0.3274,0,2,72.46,7.33
2.674000,0.5335,0.4728,0,2,72.46,7.33
2.676000,0.7457,0.6356,0,2,72.46,7.33
2.678000,0.8962,0.8082,0,2,72.46,7.33
2.680000,1.0869,0.9813,0,2,72.46,7.33
2.682000,1.2476,1.1438,0,2,72.46,7.33
2.684000,1.3818,1.2844,0,2,72.46,7.33
2.686000,1.5052,1.3924,0,2,72.46,7.33
2.688000,1.5677,1.4591,1,2,72.46,7.33
2.690000,1.5919,1.4784,1,2,72.46,7.33
2.692000,1.5441,1.4479,1,2,72.46,7.33
2.694000,1.4960,1.3689,0,2,72.46,7.33
2.696000,1.3458,1.2467,0,2,72.46,7.33
2.698000,1.2064,1.0897,0,2,72.46,7.33
2.700000,0.9645,0.9089,0,2,72.46,7.33
2.702000,0.8532,0.7167,0,2,72.46,7.33
2.704000,0.6373,0.5259,0,2,72.46,7.33
2.706000,0.4312,0.3479,0,2,72.46,7.33
2.708000,0.2656,0.1923,0,2,72.46,7.33
2.710000,0.1386,0.0656,0,2,72.46,7.33
2.712000,0.0707,-0.0290,0,2,72.46,7.33
2.714000,0.0040,-0.0918,0,2,72.46,7.33
2.716000,-0.0296,-0.1258,0,2,72.46,7.33
2.718000,-0.0546,-0.1363,0,2,72.46,7.33
2.720000,0.0199,-0.1298,0,2,72.46,7.33
2.722000,0.0134,-0.1128,0,2,72.46,7.33
2.724000,0.0151,-0.0913,0,2,72.46,7.33
2.726000,0.0573,-0.0697,0,2,72.46,7.33
2.728000,0.0384,-0.0510,0,2,72.46,7.33
2.730000,0.0262,-0.0367,0,2,72.46,7.33
2.732000,0.0743,-0.0269,0,2,72.46,7.33
2.734000,0.0722,-0.0211,0,2,72.46,7.33
2.736000,0.0874,-0.0180,0,2,72.46,7.33
2.738000,0.0608,-0.0166,0,2,72.46,7.33
2.740000,0.0993,-0.0155,0,2,72.46,7.33
2.742000,0.0995,-0.0138,0,2,72.46,7.33
2.744000,0.0847,-0.0108,0,2,72.46,7.33
2.746000,0.1191,-0.0061,0,2,72.46,7.33
2.748000,0.0740,0.0005,0,2,72.46,7.33
2.750000,0.1024,0.0088,0,2,72.46,7.33
2.752000,0.1177,0.0186,0,2,72.46,7.33
2.754000,0.1368,0.0293,0,2,72.46,7.33
2.756000,0.1350,0.0404,0,2,72.46,7.33
2.758000,0.1668,0.0516,0,2,72.46,7.33
2.760000,0.1788,0.0624,0,2,72.46,7.33
2.762000,0.1442,0.0728,0,2,72.46,7.33
2.764000,0.1865,0.0828,0,2,72.46,7.33
2.766000,0.1947,0.0924,0,2,72.46,7.33
2.768000,0.2054,0.1019,0,2,72.46,7.33
2.770000,0.2088,0.1115,0,2,72.46,7.33
2.772000,0.2143,0.1215,0,2,72.46,7.33
2.774000,0.2483,0.1320,0,2,72.46,7.33
2.776000,0.2292,0.1432,0,2,72.46,7.33
2.778000,0.2741,0.1554,0,2,72.46,7.33
2.780000,0.2706,0.1684,0,2,72.46,7.33
2.782000,0.2802,0.1820,0,2,72.46,7.33
2.784000,0.2683,0.1957,0,2,72.46,7.33
2.786000,0.2853,0.2087,0,2,72.46,7.33
2.788000,0.3237,0.2201,0,2,72.46,7.33
2.790000,0.3678,0.2291,0,2,72.46,7.33
2.792000,0.3489,0.2351,0,2,72.46,7.33
2.794000,0.3351,0.2380,0,2,72.46,7.33
2.796000,0.3410,0.2384,0,2,72.46,7.33
2.798000,0.3195,0.2371,0,2,72.46,7.33
2.800000,0.3513,0.2352,0,2,72.46,7.33
2.802000,0.3288,0.2338,0,2,72.46,7.33
2.804000,0.3156,0.2338,0,2,72.46,7.33
2.806000,0.3169,0.2355,0,2,72.46,7.33
2.808000,0.3494,0.2386,0,2,72.46,7.33
2.810000,0.3618,0.2424,0,2,72.46,7.33
2.812000,0.3306,0.2459,0,2,72.46,7.33
2.814000,0.3415,0.2481,0,2,72.46,7.33
2.816000,0.3379,0.2479,0,2,72.46,7.33
2.818000,0.3986,0.2449,0,2,72.46,7.33
2.820000,0.3211,0.2390,0,2,72.46,7.33
2.822000,0.3365,0.2307,0,2,72.46,7.33
2.824000,0.3298,0.2209,0,2,72.46,7.33
2.826000,0.2972,0.2107,0,2,72.46,7.33
2.828000,0.2772,0.2010,0,2,72.46,7.33
2.830000,0.2815,0.1925,0,2,72.46,7.33
2.832000,0.2872,0.1856,0,2,72.46,7.33
2.834000,0.3111,0.1800,0,2,72.46,7.33
2.836000,0.2821,0.1753,0,2,72.46,7.33
2.838000,0.2267,0.1707,0,2,72.46,7.33
2.840000,0.2764,0.1655,0,2,72.46,7.33
2.842000,0.2610,0.1591,0,2,72.46,7.33
2.844000,0.2840,0.1511,0,2,72.46,7.33
2.846000,0.2308,0.1412,0,2,72.46,7.33
2.848000,0.2416,0.1298,0,2,72.46,7.33
2.850000,0.1982,0.1174,0,2,72.46,7.33
2.852000,0.2013,0.1046,0,2,72.46,7.33
2.854000,0.1855,0.0920,0,2,72.46,7.33
2.856000,0.1813,0.0800,0,2,72.46,7.33
2.858000,0.1583,0.0689,0,2,72.46,7.33
2.860000,0.1803,0.0587,0,2,72.46,7.33
2.862000,0.1195,0.0492,0,2,72.46,7.33
2.864000,0.1696,0.0404,0,2,72.46,7.33
2.866000,0.1206,0.0318,0,2,72.46,7.33
2.868000,0.1394,0.0233,0,2,72.46,7.33
2.870000,0.1025,0.0149,0,2,72.46,7.33
2.872000,0.1103,0.0067,0,2,72.46,7.33
2.874000,0.1080,-0.0012,0,2,72.46,7.33
2.876000,0.0730,-0.0086,0,2,72.46,7.33
2.878000,0.0682,-0.0154,0,2,72.46,7.33
2.880000,0.0978,-0.0216,0,2,72.46,7.33
2.882000,0.0649,-0.0271,0,2,72.46,7.33
2.884000,0.0828,-0.0320,0,2,72.46,7.33
2.886000,0.0662,-0.0365,0,2,72.46,7.33
2.888000,0.0362,-0.0408,0,2,72.46,7.33
2.890000,0.0628,-0.0450,0,2,72.46,7.33
2.892000,0.0474,-0.0491,0,2,72.46,7.33
2.894000,0.0702,-0.0532,0,2,72.46,7.33
2.896000,0.0277,-0.0571,0,2,72.46,7.33
2.898000,0.0406,-0.0607,0,2,72.46,7.33
2.900000,0.0229,-0.0639,0,2,72.46,7.33
2.902000,0.0378,-0.0665,0,2,72.46,7.33
2.904000,0.0329,-0.0684,0,2,72.46,7.33
2.906000,0.0359,-0.0696,0,2,72.46,7.33
2.908000,0.0245,-0.0702,0,2,72.46,7.33
2.910000,0.0424,-0.0704,0,2,72.46,7.33
2.912000,0.0035,-0.0704,0,2,72.46,7.33
2.914000,0.0340,-0.0706,0,2,72.46,7.33
2.916000,0.0618,-0.0711,0,2,72.46,7.33
2.918000,-0.0091,-0.0722,0,2,72.46,7.33
2.920000,0.0375,-0.0742,0,2,72.46,7.33
2.922000,-0.0015,-0.0770,0,2,72.46,7.33
2.924000,0.0430,-0.0805,0,2,72.46,7.33
2.926000,0.0311,-0.0847,0,2,72.46,7.33
2.928000,-0.0080,-0.0892,0,2,72.46,7.33
2.930000,0.0223,-0.0934,0,2,72.46,7.33
2.932000,-0.0060,-0.0970,0,2,72.46,7.33
2.934000,-0.0100,-0.0994,0,2,72.46,7.33
2.936000,0.0134,-0.1003,0,2,72.46,7.33
2.938000,-0.0164,-0.0997,0,2,72.46,7.33
2.940000,0.0062,-0.0976,0,2,72.46,7.33
2.942000,-0.0029,-0.0945,0,2,72.46,7.33
2.944000,-0.0162,-0.0909,0,2,72.46,7.33
2.946000,0.0481,-0.0874,0,2,72.46,7.33
2.948000,0.0199,-0.0845,0,2,72.46,7.33
2.950000,0.0522,-0.0827,0,2,72.46,7.33
2.952000,0.0083,-0.0820,0,2,72.46,7.33
2.954000,-0.0211,-0.0825,0,2,72.46,7.33
2.956000,-0.0030,-0.0839,0,2,72.46,7.33
2.958000,0.0225,-0.0863,0,2,72.46,7.33
2.960000,0.0207,-0.0896,0,2,72.46,7.33
2.962000,0.0002,-0.0938,0,2,72.46,7.33
2.964000,-0.0070,-0.0989,0,2,72.46,7.33
2.966000,0.0355,-0.1044,0,2,72.46,7.33
2.968000,-0.0049,-0.1100,0,2,72.46,7.33
2.970000,-0.0056,-0.1148,0,2,72.46,7.33
2.972000,-0.0544,-0.1182,0,2,72.46,7.33
2.974000,-0.0157,-0.1197,0,2,72.46,7.33
2.976000,-0.0389,-0.1191,0,2,72.46,7.33
2.978000,-0.0555,-0.1166,0,2,72.46,7.33
2.980000,0.0044,-0.1129,0,2,72.46,7.33
2.982000,0.0598,-0.1088,0,2,72.46,7.33
2.984000,-0.0131,-0.1051,0,2,72.46,7.33
2.986000,-0.0198,-0.1022,0,2,72.46,7.33
2.988000,0.0053,-0.1005,0,2,72.46,7.33
2.990000,-0.0499,-0.0999,0,2,72.46,7.33
2.992000,0.0465,-0.1001,0,2,72.46,7.33
2.994000,0.0077,-0.1010,0,2,72.46,7.33
2.996000,-0.0166,-0.1020,0,2,72.46,7.33
2.998000,-0.0094,-0.1030,0,2,72.46,7.33
3.000000,-0.0238,-0.1036,0,2,72.46,7.33
3.002000,0.0060,-0.1039,0,2,72.46,7.33
3.004000,0.0111,-0.1038,0,2,72.46,7.33
3.006000,-0.0030,-0.1036,0,2,72.46,7.33
3.008000,0.0042,-0.1034,0,2,72.46,7.33
3.010000,-0.0343,-0.1033,0,2,72.46,7.33
3.012000,0.0095,-0.1036,0,2,72.46,7.33
3.014000,-0.0099,-0.1042,0,2,72.46,7.33
3.016000,0.0240,-0.1049,0,2,72.46,7.33
3.018000,-0.0005,-0.1057,0,2,72.46,7.33
3.020000,-0.0270,-0.1063,0,2,72.46,7.33
3.022000,-0.0143,-0.1066,0,2,72.46,7.33
3.024000,-0.0043,-0.1064,0,2,72.46,7.33
3.026000,-0.0235,-0.1058,0,2,72.46,7.33
3.028000,-0.0126,-0.1053,0,2,72.46,7.33
3.030000,0.0130,-0.1050,0,2,72.46,7.33
3.032000,0.0263,-0.1053,0,2,72.46,7.33
3.034000,-0.0078,-0.1063,0,2,72.46,7.33
3.036000,-0.0347,-0.1077,0,2,72.46,7.33
3.038000,0.0050,-0.1091,0,2,72.46,7.33
3.040000,-0.0116,-0.1103,0,2,72.46,7.33
3.042000,-0.0110,-0.1107,0,2,72.46,7.33
3.044000,0.0001,-0.1101,0,2,72.46,7.33
3.046000,-0.0573,-0.1084,0,2,72.46,7.33
3.048000,0.0039,-0.1059,0,2,72.46,7.33
3.050000,0.0172,-0.1031,0,2,72.46,7.33
3.052000,0.0035,-0.1004,0,2,72.46,7.33
3.054000,-0.0064,-0.0982,0,2,72.46,7.33
3.056000,0.0095,-0.0967,0,2,72.46,7.33
3.058000,0.0383,-0.0957,0,2,72.46,7.33
3.060000,0.0233,-0.0950,0,2,72.46,7.33
3.062000,-0.0445,-0.0940,0,2,72.46,7.33
3.064000,-0.0217,-0.0924,0,2,72.46,7.33
3.066000,0.0175,-0.0901,0,2,72.46,7.33
3.068000,0.0368,-0.0873,0,2,72.46,7.33
3.070000,0.0102,-0.0846,0,2,72.46,7.33
3.072000,0.0113,-0.0825,0,2,72.46,7.33
3.074000,0.0348,-0.0818,0,2,72.46,7.33
3.076000,0.0005,-0.0828,0,2,72.46,7.33
3.078000,0.0451,-0.0855,0,2,72.46,7.33
3.080000,0.0073,-0.0898,0,2,72.46,7.33
3.082000,0.0120,-0.0950,0,2,72.46,7.33
3.084000,-0.0104,-0.1003,0,2,72.46,7.33
3.086000,-0.0262,-0.1050,0,2,72.46,7.33
3.088000,0.0034,-0.1084,0,2,72.46,7.33
3.090000,-0.0283,-0.1102,0,2,72.46,7.33
3.092000,0.0053,-0.1104,0,2,72.46,7.33
3.094000,-0.0042,-0.1093,0,2,72.46,7.33
3.096000,-0.0008,-0.1074,0,2,72.46,7.33
3.098000,-0.0090,-0.1051,0,2,72.46,7.33
3.100000,0.0018,-0.1032,0,2,72.46,7.33
3.102000,-0.0079,-0.1018,0,2,72.46,7.33
3.104000,-0.0159,-0.1014,0,2,72.46,7.33
3.106000,0.0151,-0.1018,0,2,72.46,7.33
3.108000,0.0092,-0.1030,0,2,72.46,7.33
3.110000,0.0088,-0.1046,0,2,72.46,7.33
3.112000,-0.0034,-0.1061,0,2,72.46,7.33
3.114000,-0.0579,-0.1070,0,2,72.46,7.33
3.116000,0.0195,-0.1070,0,2,72.46,7.33
3.118000,-0.0044,-0.1060,0,2,72.46,7.33
3.120000,-0.0086,-0.1042,0,2,72.46,7.33
3.122000,-0.0004,-0.1017,0,2,72.46,7.33
3.124000,0.0053,-0.0991,0,2,72.46,7.33
3.126000,0.0093,-0.0966,0,2,72.46,7.33
3.128000,0.0134,-0.0945,0,2,72.46,7.33
3.130000,0.0222,-0.0931,0,2,72.46,7.33
3.132000,-0.0367,-0.0924,0,2,72.46,7.33
3.134000,0.0386,-0.0924,0,2,72.46,7.33
3.136000,0.0245,-0.0928,0,2,72.46,7.33
3.138000,-0.0098,-0.0937,0,2,72.46,7.33
3.140000,-0.0262,-0.0950,0,2,72.46,7.33
3.142000,0.0201,-0.0967,0,2,72.46,7.33
3.144000,-0.0015,-0.0985,0,2,72.46,7.33
3.146000,0.0600,-0.1006,0,2,72.46,7.33
3.148000,-0.0490,-0.1027,0,2,72.46,7.33
3.150000,0.0171,-0.1043,0,2,72.46,7.33
3.152000,-0.0170,-0.1053,0,2,72.46,7.33
3.154000,-0.0072,-0.1053,0,2,72.46,7.33
3.156000,0.0057,-0.1042,0,2,72.46,7.33
3.158000,-0.0182,-0.1020,0,2,72.46,7.33
3.160000,0.0200,-0.0989,0,2,72.46,7.33
3.162000,0.0033,-0.0954,0,2,72.46,7.33
3.164000,0.0090,-0.0919,0,2,72.46,7.33
3.166000,-0.0011,-0.0889,0,2,72.46,7.33
3.168000,0.0155,-0.0869,0,2,72.46,7.33
3.170000,0.0513,-0.0860,0,2,72.46,7.33
3.172000,0.0114,-0.0864,0,2,72.46,7.33
3.174000,-0.0074,-0.0879,0,2,72.46,7.33
3.176000,0.0289,-0.0900,0,2,72.46,7.33
3.178000,-0.0167,-0.0926,0,2,72.46,7.33
3.180000,0.0300,-0.0951,0,2,72.46,7.33
3.182000,0.0051,-0.0973,0,2,72.46,7.33
3.184000,-0.0053,-0.0991,0,2,72.46,7.33
3.186000,0.0025,-0.1004,0,2,72.46,7.33
3.188000,-0.0304,-0.1015,0,2,72.46,7.33
3.190000,0.0286,-0.1024,0,2,72.46,7.33
3.192000,-0.0093,-0.1035,0,2,72.46,7.33
3.194000,0.0179,-0.1046,0,2,72.46,7.33
3.196000,0.0183,-0.1058,0,2,72.46,7.33
3.198000,-0.0142,-0.1066,0,2,72.46,7.33
3.200000,-0.0168,-0.1067,0,2,72.46,7.33
3.202000,0.0005,-0.1058,0,2,72.46,7.33
3.204000,-0.0357,-0.1038,0,2,72.46,7.33
3.206000,-0.0176,-0.1009,0,2,72.46,7.33
3.208000,0.0370,-0.0975,0,2,72.46,7.33
3.210000,0.0334,-0.0942,0,2,72.46,7.33
3.212000,0.0271,-0.0913,0,2,72.46,7.33
3.214000,-0.0102,-0.0893,0,2,72.46,7.33
3.216000,0.0304,-0.0882,0,2,72.46,7.33
3.218000,-0.0094,-0.0879,0,2,72.46,7.33
3.220000,0.0199,-0.0883,0,2,72.46,7.33
3.222000,0.0005,-0.0893,0,2,72.46,7.33
3.224000,0.0249,-0.0908,0,2,72.46,7.33
3.226000,0.0015,-0.0930,0,2,72.46,7.33
3.228000,0.0339,-0.0957,0,2,72.46,7.33
3.230000,-0.0094,-0.0990,0,2,72.46,7.33
3.232000,0.0016,-0.1027,0,2,72.46,7.33
3.234000,-0.0007,-0.1065,0,2,72.46,7.33
3.236000,-0.0302,-0.1104,0,2,72.46,7.33
3.238000,0.0150,-0.1138,0,2,72.46,7.33
3.240000,-0.0236,-0.1166,0,2,72.46,7.33
3.242000,0.0254,-0.1183,0,2,72.46,7.33
3.244000,-0.0396,-0.1188,0,2,72.46,7.33
3.246000,-0.0194,-0.1179,0,2,72.46,7.33
3.248000,-0.0232,-0.1159,0,2,72.46,7.33
3.250000,-0.0341,-0.1131,0,2,72.46,7.33
3.252000,-0.0076,-0.1101,0,2,72.46,7.33
3.254000,0.0250,-0.1074,0,2,72.46,7.33
3.256000,0.0282,-0.1056,0,2,72.46,7.33
3.258000,0.0026,-0.1049,0,2,72.46,7.33
3.260000,-0.0031,-0.1052,0,2,72.46,7.33
3.262000,-0.0187,-0.1061,0,2,72.46,7.33
3.264000,-0.0184,-0.1070,0,2,72.46,7.33
3.266000,-0.0131,-0.1078,0,2,72.46,7.33
3.268000,0.0009,-0.1081,0,2,72.46,7.33
3.270000,0.0316,-0.1080,0,2,72.46,7.33
3.272000,-0.0351,-0.1077,0,2,72.46,7.33
3.274000,-0.0209,-0.1074,0,2,72.46,7.33
3.276000,0.0212,-0.1073,0,2,72.46,7.33
3.278000,0.0238,-0.1076,0,2,72.46,7.33
3.280000,0.0275,-0.1081,0,2,72.46,7.33
3.282000,-0.0465,-0.1087,0,2,72.46,7.33
3.284000,-0.0265,-0.1090,0,2,72.46,7.33
3.286000,-0.0200,-0.1090,0,2,72.46,7.33
3.288000,0.0127,-0.1086,0,2,72.46,7.33
3.290000,-0.0057,-0.1078,0,2,72.46,7.33
3.292000,0.0486,-0.1067,0,2,72.46,7.33
3.294000,-0.0170,-0.1052,0,2,72.46,7.33
3.296000,0.0153,-0.1033,0,2,72.46,7.33
3.298000,-0.0210,-0.1009,0,2,72.46,7.33
3.300000,-0.0106,-0.0979,0,2,72.46,7.33
3.302000,0.0116,-0.0946,0,2,72.46,7.33
3.304000,0.0258,-0.0915,0,2,72.46,7.33
3.306000,0.0078,-0.0890,0,2,72.46,7.33
3.308000,0.0366,-0.0877,0,2,72.46,7.33
3.310000,0.0245,-0.0879,0,2,72.46,7.33
3.312000,0.0095,-0.0899,0,2,72.46,7.33
3.314000,0.0355,-0.0934,0,2,72.46,7.33
3.316000,-0.0255,-0.0979,0,2,72.46,7.33
3.318000,0.0065,-0.1030,0,2,72.46,7.33
3.320000,0.0011,-0.1080,0,2,72.46,7.33
3.322000,-0.0085,-0.1125,0,2,72.46,7.33
3.324000,-0.0043,-0.1160,0,2,72.46,7.33
3.326000,0.0006,-0.1185,0,2,72.46,7.33
3.328000,-0.0257,-0.1198,0,2,72.46,7.33
3.330000,-0.0141,-0.1202,0,2,72.46,7.33
3.332000,-0.0297,-0.1198,0,2,72.46,7.33
3.334000,0.0145,-0.1189,0,2,72.46,7.33
3.336000,-0.0328,-0.1180,0,2,72.46,7.33
3.338000,-0.0009,-0.1172,0,2,72.46,7.33
3.340000,-0.0190,-0.1167,0,2,72.46,7.33
3.342000,0.0162,-0.1164,0,2,72.46,7.33
3.344000,-0.0054,-0.1160,0,2,72.46,7.33
3.346000,-0.0040,-0.1152,0,2,72.46,7.33
3.348000,-0.0162,-0.1136,0,2,72.46,7.33
3.350000,-0.0201,-0.1107,0,2,72.46,7.33
3.352000,0.0024,-0.1066,0,2,72.46,7.33
3.354000,-0.0011,-0.1012,0,2,72.46,7.33
3.356000,0.0191,-0.0949,0,2,72.46,7.33
3.358000,0.0197,-0.0884,0,2,72.46,7.33
3.360000,0.0163,-0.0823,0,2,72.46,7.33
3.362000,0.0496,-0.0771,0,2,72.46,7.33
3.364000,0.0537,-0.0732,0,2,72.46,7.33
3.366000,0.0252,-0.0707,0,2,72.46,7.33
3.368000,0.0281,-0.0693,0,2,72.46,7.33
3.370000,0.0725,-0.0687,0,2,72.46,7.33
3.372000,-0.0014,-0.0681,0,2,72.46,7.33
3.374000,0.0366,-0.0670,0,2,72.46,7.33
3.376000,0.0609,-0.0648,0,2,72.46,7.33
3.378000,0.0323,-0.0612,0,2,72.46,7.33
3.380000,0.0656,-0.0560,0,2,72.46,7.33
3.382000,0.0496,-0.0490,0,2,72.46,7.33
3.384000,0.0912,-0.0405,0,2,72.46,7.33
3.386000,0.1097,-0.0305,0,2,72.46,7.33
3.388000,0.0465,-0.0194,0,2,72.46,7.33
3.390000,0.0906,-0.0073,0,2,72.46,7.33
3.392000,0.1054,0.0051,0,2,72.46,7.33
3.394000,0.1581,0.0173,0,2,72.46,7.33
3.396000,0.1185,0.0286,0,2,72.46,7.33
3.398000,0.1321,0.0387,0,2,72.46,7.33
3.400000,0.1687,0.0469,0,2,72.46,7.33
3.402000,0.2031,0.0533,0,2,72.46,7.33
3.404000,0.1675,0.0579,0,2,72.46,7.33
3.406000,0.1541,0.0612,0,2,72.46,7.33
3.408000,0.1803,0.0637,0,2,72.46,7.33
3.410000,0.1624,0.0658,0,2,72.46,7.33
3.412000,0.1455,0.0679,0,2,72.46,7.33
3.414000,0.2001,0.0701,0,2,72.46,7.33
3.416000,0.2014,0.0721,0,2,72.46,7.33
3.418000,0.1442,0.0736,0,2,72.46,7.33
3.420000,0.2085,0.0741,0,2,72.46,7.33
3.422000,0.1920,0.0730,0,2,72.46,7.33
3.424000,0.2044,0.0703,0,2,72.46,7.33
3.426000,0.1762,0.0657,0,2,72.46,7.33
3.428000,0.1581,0.0594,0,2,72.46,7.33
3.430000,0.1471,0.0517,0,2,72.46,7.33
3.432000,0.1605,0.0428,0,2,72.46,7.33
3.434000,0.1132,0.0328,0,2,72.46,7.33
3.436000,0.1350,0.0219,0,2,72.46,7.33
3.438000,0.1210,0.0102,0,2,72.46,7.33
3.440000,0.1371,-0.0022,0,2,72.46,7.33
3.442000,0.1274,-0.0149,0,2,72.46,7.33
3.444000,0.0678,-0.0275,0,2,72.46,7.33
3.446000,0.0865,-0.0390,0,2,72.46,7.33
3.448000,0.0509,-0.0489,0,2,72.46,7.33
3.450000,0.0173,-0.0566,0,2,72.46,7.33
3.452000,0.0450,-0.0618,0,2,72.46,7.33
3.454000,0.0424,-0.0648,0,2,72.46,7.33
3.456000,0.0509,-0.0662,0,2,72.46,7.33
3.458000,0.0720,-0.0667,0,2,72.46,7.33
3.460000,0.0829,-0.0669,0,2,72.46,7.33
3.462000,0.0073,-0.0675,0,2,72.46,7.33
3.464000,0.0459,-0.0688,0,2,72.46,7.33
3.466000,0.0313,-0.0710,0,2,72.46,7.33
3.468000,0.0528,-0.0741,0,2,72.46,7.33
3.470000,0.0462,-0.0782,0,2,72.46,7.33
3.472000,0.0053,-0.0832,0,2,72.46,7.33
3.474000,0.0075,-0.0889,0,2,72.46,7.33
3.476000,0.0271,-0.0950,0,2,72.46,7.33
3.478000,0.0035,-0.1010,0,2,72.46,7.33
3.480000,0.0030,-0.1057,0,2,72.46,7.33
3.482000,0.0224,-0.1078,0,2,72.46,7.33
3.484000,0.0164,-0.1048,0,2,72.46,7.33
3.486000,0.0492,-0.0938,0,2,72.46,7.33
3.488000,0.0309,-0.0712,0,2,72.46,7.33
3.490000,0.0981,-0.0330,0,2,72.46,7.33
3.492000,0.1344,0.0245,0,2,72.46,7.33
3.494000,0.1849,0.1042,0,2,72.46,7.33
3.496000,0.2980,0.2075,0,2,72.46,7.33
3.498000,0.4594,0.3341,0,2,72.46,7.33
3.500000,0.6188,0.4812,0,2,72.46,7.33
3.502000,0.7706,0.6436,0,2,72.46,7.33
3.504000,0.9082,0.8142,0,2,72.46,7.33
3.506000,1.0739,0.9837,0,2,72.46,7.33
3.508000,1.2340,1.1417,0,2,72.46,7.33
3.510000,1.3961,1.2776,0,2,72.46,7.33
3.512000,1.5065,1.3811,0,2,72.46,7.33
3.514000,1.5792,1.4438,1,2,72.46,7.33
3.516000,1.5855,1.4598,1,2,72.46,7.33
3.518000,1.5461,1.4267,1,2,72.46,7.33
3.520000,1.4498,1.3459,0,2,72.46,7.33
3.522000,1.4048,1.2227,0,2,72.46,7.33
3.524000,1.1532,1.0655,0,2,72.46,7.33
3.526000,1.0221,0.8852,0,2,72.46,7.33
3.528000,0.7654,0.6940,0,2,72.46,7.33
3.530000,0.6091,0.5042,0,2,72.46,7.33
3.532000,0.4380,0.3271,0,2,72.46,7.33
3.534000,0.2975,0.1718,0,2,72.46,7.33
3.536000,0.1563,0.0445,0,2,72.46,7.33
3.538000,0.0403,-0.0516,0,2,72.46,7.33
3.540000,-0.0262,-0.1166,0,2,72.46,7.33
3.542000,-0.0403,-0.1532,0,2,72.46,7.33
3.544000,-0.0371,-0.1664,0,2,72.46,7.33
3.546000,0.0115,-0.1622,0,2,72.46,7.33
3.548000,-0.0499,-0.1471,0,2,72.46,7.33
3.550000,0.0105,-0.1268,0,2,72.46,7.33
3.552000,0.0027,-0.1058,0,2,72.46,7.33
3.554000,0.0445,-0.0872,0,2,72.46,7.33
3.556000,0.0405,-0.0724,0,2,72.46,7.33
3.558000,0.0521,-0.0617,0,2,72.46,7.33
3.560000,0.0574,-0.0545,0,2,72.46,7.33
3.562000,0.0380,-0.0496,0,2,72.46,7.33
3.564000,0.0442,-0.0458,0,2,72.46,7.33
3.566000,0.1041,-0.0423,0,2,72.46,7.33
3.568000,0.0894,-0.0384,0,2,72.46,7.33
3.570000,0.1118,-0.0338,0,2,72.46,7.33
3.572000,0.0588,-0.0281,0,2,72.46,7.33
3.574000,0.0939,-0.0214,0,2,72.46,7.33
3.576000,0.1246,-0.0135,0,2,72.46,7.33
3.578000,0.0983,-0.0045,0,2,72.46,7.33
3.580000,0.1291,0.0056,0,2,72.46,7.33
3.582000,0.1190,0.0166,0,2,72.46,7.33
3.584000,0.1629,0.0283,0,2,72.46,7.33
3.586000,0.1644,0.0404,0,2,72.46,7.33
3.588000,0.1487,0.0525,0,2,72.46,7.33
3.590000,0.1913,0.0645,0,2,72.46,7.33
3.592000,0.2052,0.0760,0,2,72.46,7.33
3.594000,0.1999,0.0871,0,2,72.46,7.33
3.596000,0.2288,0.0977,0,2,72.46,7.33
3.598000,0.2215,0.1082,0,2,72.46,7.33
3.600000,0.2221,0.1186,0,2,72.46,7.33
3.602000,0.2528,0.1293,0,2,72.46,7.33
3.604000,0.2621,0.1402,0,2,72.46,7.33
3.606000,0.2662,0.1513,0,2,72.46,7.33
3.608000,0.3172,0.1623,0,2,72.46,7.33
3.610000,0.2475,0.1730,0,2,72.46,7.33
3.612000,0.3043,0.1828,0,2,72.46,7.33
3.614000,0.3262,0.1915,0,2,72.46,7.33
3.616000,0.3112,0.1986,0,2,72.46,7.33
3.618000,0.3223,0.2040,0,2,72.46,7.33
3.620000,0.3346,0.2077,0,2,72.46,7.33
3.622000,0.3358,0.2099,0,2,72.46,7.33
3.624000,0.3342,0.2110,0,2,72.46,7.33
3.626000,0.3481,0.2114,0,2,72.46,7.33
3.628000,0.3210,0.2117,0,2,72.46,7.33
3.630000,0.3092,0.2123,0,2,72.46,7.33
3.632000,0.3080,0.2133,0,2,72.46,7.33
3.634000,0.3484,0.2146,0,2,72.46,7.33
3.636000,0.3574,0.2160,0,2,72.46,7.33
3.638000,0.3580,0.2173,0,2,72.46,7.33
3.640000,0.3258,0.2183,0,2,72.46,7.33
3.642000,0.3630,0.2187,0,2,72.46,7.33
3.644000,0.3107,0.2186,0,2,72.46,7.33
3.646000,0.3231,0.2177,0,2,72.46,7.33
3.648000,0.3344,0.2160,0,2,72.46,7.33
3.650000,0.3647,0.2131,0,2,72.46,7.33
3.652000,0.3014,0.2088,0,2,72.46,7.33
3.654000,0.3517,0.2030,0,2,72.46,7.33
3.656000,0.3115,0.1955,0,2,72.46,7.33
3.658000,0.3172,0.1865,0,2,72.46,7.33
3.660000,0.2790,0.1765,0,2,72.46,7.33
3.662000,0.2868,0.1657,0,2,72.46,7.33
3.664000,0.2888,0.1545,0,2,72.46,7.33
3.666000,0.2679,0.1433,0,2,72.46,7.33
3.668000,0.2527,0.1322,0,2,72.46,7.33
3.670000,0.2484,0.1214,0,2,72.46,7.33
3.672000,0.2105,0.1106,0,2,72.46,7.33
3.674000,0.2139,0.0996,0,2,72.46,7.33
3.676000,0.2086,0.0882,0,2,72.46,7.33
3.678000,0.2103,0.0762,0,2,72.46,7.33
3.680000,0.2205,0.0635,0,2,72.46,7.33
3.682000,0.1648,0.0505,0,2,72.46,7.33
3.684000,0.1518,0.0376,0,2,72.46,7.33
3.686000,0.1478,0.0255,0,2,72.46,7.33
3.688000,0.1470,0.0148,0,2,72.46,7.33
3.690000,0.1281,0.0059,0,2,72.46,7.33
3.692000,0.1060,-0.0011,0,2,72.46,7.33
3.694000,0.0759,-0.0064,0,2,72.46,7.33
3.696000,0.1185,-0.0106,0,2,72.46,7.33
3.698000,0.1584,-0.0145,0,2,72.46,7.33
3.700000,0.1084,-0.0190,0,2,72.46,7.33
3.702000,0.0769,-0.0245,0,2,72.46,7.33
3.704000,0.1078,-0.0313,0,2,72.46,7.33
3.706000,0.0790,-0.0393,0,2,72.46,7.33
3.708000,0.0979,-0.0480,0,2,72.46,7.33
3.710000,0.0458,-0.0570,0,2,72.46,7.33
3.712000,0.0682,-0.0657,0,2,72.46,7.33
3.714000,0.0282,-0.0735,0,2,72.46,7.33
3.716000,0.0202,-0.0803,0,2,72.46,7.33
3.718000,0.0583,-0.0862,0,2,72.46,7.33
3.720000,0.0618,-0.0912,0,2,72.46,7.33
3.722000,-0.0092,-0.0959,0,2,72.46,7.33
3.724000,0.0381,-0.1004,0,2,72.46,7.33
3.726000,0.0383,-0.1050,0,2,72.46,7.33
3.728000,0.0092,-0.1097,0,2,72.46,7.33
3.730000,0.0252,-0.1141,0,2,72.46,7.33
3.732000,0.0141,-0.1179,0,2,72.46,7.33
3.734000,-0.0299,-0.1207,0,2,72.46,7.33
3.736000,0.0077,-0.1222,0,2,72.46,7.33
3.738000,-0.0095,-0.1224,0,2,72.46,7.33
3.740000,0.0067,-0.1213,0,2,72.46,7.33
3.742000,-0.0045,-0.1196,0,2,72.46,7.33
3.744000,0.0151,-0.1177,0,2,72.46,7.33
3.746000,0.0265,-0.1163,0,2,72.46,7.33
3.748000,0.0304,-0.1158,0,2,72.46,7.33
3.750000,-0.0072,-0.1162,0,2,72.46,7.33
3.752000,0.0324,-0.1174,0,2,72.46,7.33
3.754000,-0.0167,-0.1189,0,2,72.46,7.33
3.756000,-0.0015,-0.1204,0,2,72.46,7.33
3.758000,-0.0417,-0.1215,0,2,72.46,7.33
3.760000,0.0536,-0.1220,0,2,72.46,7.33
3.762000,0.0002,-0.1218,0,2,72.46,7.33
3.764000,-0.0099,-0.1212,0,2,72.46,7.33
3.766000,0.0237,-0.1204,0,2,72.46,7.33
3.768000,0.0223,-0.1196,0,2,72.46,7.33
3.770000,0.0052,-0.1189,0,2,72.46,7.33
3.772000,-0.0064,-0.1185,0,2,72.46,7.33
3.774000,-0.0086,-0.1182,0,2,72.46,7.33
3.776000,0.0124,-0.1182,0,2,72.46,7.33
3.778000,0.0183,-0.1184,0,2,72.46,7.33
3.780000,0.0075,-0.1189,0,2,72.46,7.33
3.782000,0.0301,-0.1195,0,2,72.46,7.33
3.784000,-0.0104,-0.1202,0,2,72.46,7.33
3.786000,-0.0168,-0.1210,0,2,72.46,7.33
3.788000,0.0031,-0.1219,0,2,72.46,7.33
3.790000,0.0060,-0.1229,0,2,72.46,7.33
3.792000,0.0571,-0.1239,0,2,72.46,7.33
3.794000,-0.0227,-0.1249,0,2,72.46,7.33
3.796000,-0.0052,-0.1254,0,2,72.46,7.33
3.798000,-0.0053,-0.1254,0,2,72.46,7.33
3.800000,0.0249,-0.1246,0,2,72.46,7.33
3.802000,-0.0377,-0.1229,0,2,72.46,7.33
3.804000,0.0194,-0.1205,0,2,72.46,7.33
3.806000,-0.0072,-0.1178,0,2,72.46,7.33
3.808000,0.0450,-0.1153,0,2,72.46,7.33
3.810000,0.0227,-0.1134,0,2,72.46,7.33
3.812000,0.0141,-0.1127,0,2,72.46,7.33
3.814000,0.0129,-0.1132,0,2,72.46,7.33
3.816000,-0.0067,-0.1150,0,2,72.46,7.33
3.818000,0.0219,-0.1178,0,2,72.46,7.33
3.820000,-0.0039,-0.1212,0,2,72.46,7.33
3.822000,0.0043,-0.1251,0,2,72.46,7.33
3.824000,0.0081,-0.1289,0,2,72.46,7.33
3.826000,0.0048,-0.1325,0,2,72.46,7.33
3.828000,-0.0378,-0.1356,0,2,72.46,7.33
3.830000,-0.0000,-0.1380,0,2,72.46,7.33
3.832000,-0.0015,-0.1397,0,2,72.46,7.33
3.834000,-0.0003,-0.1404,0,2,72.46,7.33
3.836000,-0.0084,-0.1402,0,2,72.46,7.33
3.838000,-0.0329,-0.1391,0,2,72.46,7.33
3.840000,0.0038,-0.1369,0,2,72.46,7.33
3.842000,-0.0116,-0.1340,0,2,72.46,7.33
3.844000,-0.0268,-0.1306,0,2,72.46,7.33
3.846000,0.0064,-0.1274,0,2,72.46,7.33
3.848000,0.0114,-0.1248,0,2,72.46,7.33
3.850000,0.0237,-0.1233,0,2,72.46,7.33
3.852000,0.0110,-0.1233,0,2,72.46,7.33
3.854000,-0.0009,-0.1247,0,2,72.46,7.33
3.856000,0.0212,-0.1270,0,2,72.46,7.33
3.858000,-0.0269,-0.1298,0,2,72.46,7.33
3.860000,-0.0014,-0.1324,0,2,72.46,7.33
3.862000,-0.0368,-0.1343,0,2,72.46,7.33
3.864000,0.0155,-0.1351,0,2,72.46,7.33
3.866000,0.0122,-0.1348,0,2,72.46,7.33
3.868000,-0.0236,-0.1338,0,2,72.46,7.33
3.870000,-0.0127,-0.1323,0,2,72.46,7.33
3.872000,0.0274,-0.1309,0,2,72.46,7.33
3.874000,-0.0217,-0.1301,0,2,72.46,7.33
3.876000,0.0184,-0.1301,0,2,72.46,7.33
3.878000,0.0111,-0.1311,0,2,72.46,7.33
3.880000,-0.0259,-0.1330,0,2,72.46,7.33
3.882000,-0.0446,-0.1355,0,2,72.46,7.33
3.884000,0.0103,-0.1382,0,2,72.46,7.33
3.886000,0.0103,-0.1409,0,2,72.46,7.33
3.888000,0.0070,-0.1430,0,2,72.46,7.33
3.890000,-0.0038,-0.1440,0,2,72.46,7.33
3.892000,-0.0270,-0.1436,0,2,72.46,7.33
3.894000,-0.0780,-0.1415,0,2,72.46,7.33
3.896000,0.0008,-0.1380,0,2,72.46,7.33
3.898000,0.0301,-0.1333,0,2,72.46,7.33
3.900000,0.0170,-0.1281,0,2,72.46,7.33
3.902000,-0.0149,-0.1231,0,2,72.46,7.33
3.904000,0.0180,-0.1188,0,2,72.46,7.33
3.906000,0.0163,-0.1158,0,2,72.46,7.33
3.908000,0.0217,-0.1144,0,2,72.46,7.33
3.910000,-0.0020,-0.1146,0,2,72.46,7.33
3.912000,0.0095,-0.1166,0,2,72.46,7.33
3.914000,0.0172,-0.1199,0,2,72.46,7.33
3.916000,0.0279,-0.1242,0,2,72.46,7.33
3.918000,-0.0379,-0.1290,0,2,72.46,7.33
3.920000,0.0283,-0.1334,0,2,72.46,7.33
3.922000,0.0004,-0.1369,0,2,72.46,7.33
3.924000,-0.0249,-0.1389,0,2,72.46,7.33
3.926000,-0.0214,-0.1390,0,2,72.46,7.33
3.928000,-0.0164,-0.1374,0,2,72.46,7.33
3.930000,-0.0097,-0.1344,0,2,72.46,7.33
3.932000,0.0222,-0.1307,0,2,72.46,7.33
3.934000,0.0044,-0.1271,0,2,72.46,7.33
3.936000,0.0150,-0.1241,0,2,72.46,7.33
3.938000,0.0021,-0.1224,0,2,72.46,7.33
3.940000,-0.0091,-0.1221,0,2,72.46,7.33
3.942000,0.0002,-0.1233,0,2,72.46,7.33
3.944000,0.0330,-0.1257,0,2,72.46,7.33
3.946000,-0.0073,-0.1290,0,2,72.46,7.33
3.948000,0.0083,-0.1325,0,2,72.46,7.33
3.950000,-0.0124,-0.1358,0,2,72.46,7.33
3.952000,-0.0201,-0.1386,0,2,72.46,7.33
3.954000,-0.0148,-0.1404,0,2,72.46,7.33
3.956000,-0.0193,-0.1415,0,2,72.46,7.33
3.958000,-0.0096,-0.1418,0,2,72.46,7.33
3.960000,-0.0099,-0.1416,0,2,72.46,7.33
3.962000,-0.0249,-0.1412,0,2,72.46,7.33
3.964000,0.0366,-0.1406,0,2,72.46,7.33
3.966000,-0.0043,-0.1396,0,2,72.46,7.33
3.968000,-0.0083,-0.1381,0,2,72.46,7.33
3.970000,-0.0246,-0.1358,0,2,72.46,7.33
3.972000,-0.0412,-0.1326,0,2,72.46,7.33
3.974000,0.0008,-0.1287,0,2,72.46,7.33
3.976000,0.0328,-0.1244,0,2,72.46,7.33
3.978000,0.0109,-0.1205,0,2,72.46,7.33
3.980000,0.0151,-0.1175,0,2,72.46,7.33
3.982000,-0.0113,-0.1160,0,2,72.46,7.33
3.984000,0.0171,-0.1164,0,2,72.46,7.33
3.986000,0.0472,-0.1185,0,2,72.46,7.33
3.988000,0.0200,-0.1219,0,2,72.46,7.33
3.990000,-0.0003,-0.1260,0,2,72.46,7.33
3.992000,-0.0465,-0.1298,0,2,72.46,7.33
3.994000,0.0141,-0.1324,0,2,72.46,7.33
3.996000,0.0027,-0.1334,0,2,72.46,7.33
3.998000,-0.0001,-0.1323,0,2,72.46,7.33
4.000000,-0.0122,-0.1292,0,2,72.46,7.33
4.002000,0.0033,-0.1247,0,2,72.46,7.33
4.004000,-0.0214,-0.1193,0,2,72.46,7.33
4.006000,0.0364,-0.1142,0,2,72.46,7.33
4.008000,0.0370,-0.1100,0,2,72.46,7.33
4.010000,0.0619,-0.1075,0,2,72.46,7.33
4.012000,0.0232,-0.1069,0,2,72.46,7.33
4.014000,-0.0302,-0.1081,0,2,72.46,7.33
4.016000,0.0286,-0.1106,0,2,72.46,7.33
4.018000,-0.0031,-0.1140,0,2,72.46,7.33
4.020000,0.0037,-0.1178,0,2,72.46,7.33
4.022000,0.0616,-0.1214,0,2,72.46,7.33
4.024000,-0.0098,-0.1245,0,2,72.46,7.33
4.026000,-0.0121,-0.1270,0,2,72.46,7.33
4.028000,-0.0062,-0.1288,0,2,72.46,7.33
4.030000,-0.0072,-0.1298,0,2,72.46,7.33
4.032000,0.0176,-0.1305,0,2,72.46,7.33
4.034000,-0.0073,-0.1311,0,2,72.46,7.33
4.036000,-0.0083,-0.1317,0,2,72.46,7.33
4.038000,0.0099,-0.1326,0,2,72.46,7.33
4.040000,-0.0237,-0.1336,0,2,72.46,7.33
4.042000,0.0205,-0.1346,0,2,72.46,7.33
4.044000,0.0089,-0.1353,0,2,72.46,7.33
4.046000,-0.0527,-0.1354,0,2,72.46,7.33
4.048000,0.0076,-0.1347,0,2,72.46,7.33
4.050000,-0.0211,-0.1332,0,2,72.46,7.33
4.052000,0.0023,-0.1313,0,2,72.46,7.33
4.054000,0.0155,-0.1291,0,2,72.46,7.33
4.056000,0.0124,-0.1273,0,2,72.46,7.33
4.058000,-0.0215,-0.1259,0,2,72.46,7.33
4.060000,0.0125,-0.1253,0,2,72.46,7.33
4.062000,0.0279,-0.1254,0,2,72.46,7.33
4.064000,-0.0313,-0.1261,0,2,72.46,7.33
4.066000,-0.0275,-0.1273,0,2,72.46,7.33
4.068000,0.0233,-0.1287,0,2,72.46,7.33
4.070000,0.0510,-0.1301,0,2,72.46,7.33
4.072000,-0.0266,-0.1313,0,2,72.46,7.33
4.074000,-0.0349,-0.1320,0,2,72.46,7.33
4.076000,-0.0088,-0.1320,0,2,72.46,7.33
4.078000,0.0291,-0.1314,0,2,72.46,7.33
4.080000,-0.0349,-0.1302,0,2,72.46,7.33
4.082000,-0.0022,-0.1286,0,2,72.46,7.33
4.084000,0.0155,-0.1270,0,2,72.46,7.33
4.086000,0.0010,-0.1255,0,2,72.46,7.33
4.088000,0.0106,-0.1245,0,2,72.46,7.33
4.090000,0.0226,-0.1241,0,2,72.46,7.33
4.092000,-0.0120,-0.1242,0,2,72.46,7.33
4.094000,-0.0122,-0.1249,0,2,72.46,7.33
4.096000,-0.0146,-0.1262,0,2,72.46,7.33
4.098000,-0.0162,-0.1280,0,2,72.46,7.33
4.100000,0.0309,-0.1302,0,2,72.46,7.33
4.102000,-0.0086,-0.1327,0,2,72.46,7.33
4.104000,0.0160,-0.1351,0,2,72.46,7.33
4.106000,-0.0185,-0.1370,0,2,72.46,7.33
4.108000,-0.0123,-0.1377,0,2,72.46,7.33
4.110000,-0.0243,-0.1368,0,2,72.46,7.33
4.112000,-0.0158,-0.1342,0,2,72.46,7.33
4.114000,-0.0183,-0.1300,0,2,72.46,7.33
4.116000,0.0002,-0.1247,0,2,72.46,7.33
4.118000,0.0174,-0.1191,0,2,72.46,7.33
4.120000,0.0382,-0.1140,0,2,72.46,7.33
4.122000,0.0095,-0.1099,0,2,72.46,7.33
4.124000,-0.0040,-0.1074,0,2,72.46,7.33
4.126000,0.0238,-0.1067,0,2,72.46,7.33
4.128000,0.0407,-0.1074,0,2,72.46,7.33
4.130000,0.0108,-0.1094,0,2,72.46,7.33
4.132000,0.0142,-0.1121,0,2,72.46,7.33
4.134000,0.0042,-0.1151,0,2,72.46,7.33
4.136000,-0.0089,-0.1180,0,2,72.46,7.33
4.138000,-0.0047,-0.1205,0,2,72.46,7.33
4.140000,-0.0200,-0.1226,0,2,72.46,7.33
4.142000,0.0500,-0.1244,0,2,72.46,7.33
4.144000,-0.0110,-0.1259,0,2,72.46,7.33
4.146000,0.0119,-0.1269,0,2,72.46,7.33
4.148000,0.0004,-0.1275,0,2,72.46,7.33
4.150000,-0.0124,-0.1272,0,2,72.46,7.33
4.152000,-0.0100,-0.1261,0,2,72.46,7.33
4.154000,-0.0297,-0.1241,0,2,72.46,7.33
4.156000,0.0296,-0.1214,0,2,72.46,7.33
4.158000,-0.0170,-0.1185,0,2,72.46,7.33
4.160000,0.0219,-0.1158,0,2,72.46,7.33
4.162000,0.0203,-0.1139,0,2,72.46,7.33
4.164000,0.0081,-0.1131,0,2,72.46,7.33
4.166000,0.0143,-0.1134,0,2,72.46,7.33
4.168000,0.0173,-0.1147,0,2,72.46,7.33
4.170000,-0.0343,-0.1168,0,2,72.46,7.33
4.172000,0.0338,-0.1191,0,2,72.46,7.33
4.174000,-0.0241,-0.1213,0,2,72.46,7.33
4.176000,0.0187,-0.1229,0,2,72.46,7.33
4.178000,0.0226,-0.1235,0,2,72.46,7.33
4.180000,-0.0066,-0.1229,0,2,72.46,7.33
4.182000,-0.0358,-0.1208,0,2,72.46,7.33
4.184000,-0.0134,-0.1172,0,2,72.46,7.33
4.186000,0.0296,-0.1123,0,2,72.46,7.33
4.188000,0.0109,-0.1064,0,2,72.46,7.33
4.190000,0.0447,-0.0999,0,2,72.46,7.33
4.192000,0.0346,-0.0931,0,2,72.46,7.33
4.194000,0.0502,-0.0860,0,2,72.46,7.33
4.196000,0.0249,-0.0786,0,2,72.46,7.33
4.198000,0.0385,-0.0708,0,2,72.46,7.33
4.200000,0.0348,-0.0626,0,2,72.46,7.33
4.202000,0.0858,-0.0539,0,2,72.46,7.33
4.204000,0.0589,-0.0452,0,2,72.46,7.33
4.206000,0.1021,-0.0366,0,2,72.46,7.33
4.208000,0.0803,-0.0286,0,2,72.46,7.33
4.210000,0.0994,-0.0214,0,2,72.46,7.33
4.212000,0.0982,-0.0152,0,2,72.46,7.33
4.214000,0.1341,-0.0097,0,2,72.46,7.33
4.216000,0.1393,-0.0046,0,2,72.46,7.33
4.218000,0.1109,0.0008,0,2,72.46,7.33
4.220000,0.1183,0.0072,0,2,72.46,7.33
4.222000,0.1180,0.0148,0,2,72.46,7.33
4.224000,0.0861,0.0240,0,2,72.46,7.33
4.226000,0.1555,0.0341,0,2,72.46,7.33
4.228000,0.1968,0.0445,0,2,72.46,7.33
4.230000,0.1876,0.0541,0,2,72.46,7.33
4.232000,0.1933,0.0620,0,2,72.46,7.33
4.234000,0.1848,0.0678,0,2,72.46,7.33
4.236000,0.2061,0.0710,0,2,72.46,7.33
4.238000,0.1634,0.0721,0,2,72.46,7.33
4.240000,0.1819,0.0713,0,2,72.46,7.33
4.242000,0.1741,0.0691,0,2,72.46,7.33
4.244000,0.1660,0.0659,0,2,72.46,7.33
4.246000,0.1662,0.0619,0,2,72.46,7.33
4.248000,0.2084,0.0571,0,2,72.46,7.33
4.250000,0.1923,0.0515,0,2,72.46,7.33
4.252000,0.1439,0.0453,0,2,72.46,7.33
4.254000,0.1449,0.0383,0,2,72.46,7.33
4.256000,0.1740,0.0309,0,2,72.46,7.33
4.258000,0.1227,0.0231,0,2,72.46,7.33
4.260000,0.1081,0.0151,0,2,72.46,7.33
4.262000,0.0927,0.0069,0,2,72.46,7.33
4.264000,0.1362,-0.0016,0,2,72.46,7.33
4.266000,0.1073,-0.0104,0,2,72.46,7.33
4.268000,0.1312,-0.0194,0,2,72.46,7.33
4.270000,0.0742,-0.0285,0,2,72.46,7.33
4.272000,0.0955,-0.0373,0,2,72.46,7.33
4.274000,0.0193,-0.0454,0,2,72.46,7.33
4.276000,0.0680,-0.0526,0,2,72.46,7.33
4.278000,0.0535,-0.0587,0,2,72.46,7.33
4.280000,0.0400,-0.0637,0,2,72.46,7.33
4.282000,0.0451,-0.0677,0,2,72.46,7.33
4.284000,0.0788,-0.0711,0,2,72.46,7.33
4.286000,0.0261,-0.0740,0,2,72.46,7.33
4.288000,0.0375,-0.0767,0,2,72.46,7.33
4.290000,0.0031,-0.0791,0,2,72.46,7.33
4.292000,0.0388,-0.0815,0,2,72.46,7.33
4.294000,0.0202,-0.0840,0,2,72.46,7.33
4.296000,0.0625,-0.0867,0,2,72.46,7.33
4.298000,0.0094,-0.0896,0,2,72.46,7.33
4.300000,0.0063,-0.0926,0,2,72.46,7.33
4.302000,-0.0039,-0.0951,0,2,72.46,7.33
4.304000,0.0028,-0.0963,0,2,72.46,7.33
4.306000,0.0151,-0.0949,0,2,72.46,7.33
4.308000,0.0176,-0.0890,0,2,72.46,7.33
4.310000,0.0939,-0.0759,0,2,72.46,7.33
4.312000,0.0405,-0.0525,0,2,72.46,7.33
4.314000,0.1074,-0.0151,0,2,72.46,7.33
4.316000,0.1455,0.0400,0,2,72.46,7.33
4.318000,0.2295,0.1158,0,2,72.46,7.33
4.320000,0.3011,0.2144,0,2,72.46,7.33
4.322000,0.4253,0.3359,0,2,72.46,7.33
4.324000,0.5941,0.4784,0,2,72.46,7.33
4.326000,0.7330,0.6372,0,2,72.46,7.33
4.328000,0.8943,0.8056,0,2,72.46,7.33
4.330000,1.0840,0.9743,0,2,72.46,7.33
4.332000,1.2239,1.1332,0,2,72.46,7.33
4.334000,1.4009,1.2711,0,2,72.46,7.33
4.336000,1.4816,1.3779,0,2,72.46,7.33
4.338000,1.5773,1.4449,1,2,72.46,7.33
4.340000,1.5467,1.4661,1,2,72.46,7.33
4.342000,1.5582,1.4388,1,2,72.46,7.33
4.344000,1.4681,1.3640,0,2,72.46,7.33
4.346000,1.3815,1.2464,0,2,72.46,7.33
4.348000,1.2274,1.0943,0,2,72.46,7.33
4.350000,1.0132,0.9183,0,2,72.46,7.33
4.352000,0.8158,0.7305,0,2,72.46,7.33
4.354000,0.6202,0.5432,0,2,72.46,7.33
4.356000,0.4681,0.3676,0,2,72.46,7.33
4.358000,0.3025,0.2129,0,2,72.46,7.33
4.360000,0.1942,0.0853,0,2,72.46,7.33
4.362000,0.0718,-0.0119,0,2,72.46,7.33
4.364000,0.0137,-0.0789,0,2,72.46,7.33
4.366000,-0.0135,-0.1182,0,2,72.46,7.33
4.368000,-0.0325,-0.1345,0,2,72.46,7.33
4.370000,-0.0372,-0.1337,0,2,72.46,7.33
4.372000,0.0298,-0.1218,0,2,72.46,7.33
4.374000,0.0038,-0.1044,0,2,72.46,7.33
4.376000,-0.0008,-0.0859,0,2,72.46,7.33
4.378000,0.0507,-0.0692,0,2,72.46,7.33
4.380000,0.0581,-0.0557,0,2,72.46,7.33
4.382000,0.0301,-0.0457,0,2,72.46,7.33
4.384000,0.0427,-0.0384,0,2,72.46,7.33
4.386000,0.0695,-0.0329,0,2,72.46,7.33
4.388000,0.0404,-0.0280,0,2,72.46,7.33
4.390000,0.0679,-0.0231,0,2,72.46,7.33
4.392000,0.0762,-0.0177,0,2,72.46,7.33
4.394000,0.1075,-0.0117,0,2,72.46,7.33
4.396000,0.1388,-0.0051,0,2,72.46,7.33
4.398000,0.0904,0.0020,0,2,72.46,7.33
4.400000,0.1008,0.0100,0,2,72.46,7.33
4.402000,0.1216,0.0190,0,2,72.46,7.33
4.404000,0.1037,0.0296,0,2,72.46,7.33
4.406000,0.1245,0.0418,0,2,72.46,7.33
4.408000,0.1501,0.0557,0,2,72.46,7.33
4.410000,0.1673,0.0707,0,2,72.46,7.33
4.412000,0.1782,0.0861,0,2,72.46,7.33
4.414000,0.1885,0.1011,0,2,72.46,7.33
4.416000,0.2454,0.1148,0,2,72.46,7.33
4.418000,0.2335,0.1267,0,2,72.46,7.33
4.420000,0.2017,0.1366,0,2,72.46,7.33
4.422000,0.2349,0.1446,0,2,72.46,7.33
4.424000,0.2748,0.1513,0,2,72.46,7.33
4.426000,0.2498,0.1575,0,2,72.46,7.33
4.428000,0.2237,0.1638,0,2,72.46,7.33
4.430000,0.2458,0.1709,0,2,72.46,7.33
4.432000,0.2783,0.1790,0,2,72.46,7.33
4.434000,0.2898,0.1882,0,2,72.46,7.33
4.436000,0.2895,0.1981,0,2,72.46,7.33
4.438000,0.3209,0.2083,0,2,72.46,7.33
4.440000,0.3056,0.2186,0,2,72.46,7.33
4.442000,0.3266,0.2286,0,2,72.46,7.33
4.444000,0.3123,0.2381,0,2,72.46,7.33
4.446000,0.3281,0.2469,0,2,72.46,7.33
4.448000,0.3560,0.2550,0,2,72.46,7.33
4.450000,0.3301,0.2619,0,2,72.46,7.33
4.452000,0.3505,0.2674,0,2,72.46,7.33
4.454000,0.3695,0.2711,0,2,72.46,7.33
4.456000,0.3734,0.2727,0,2,72.46,7.33
4.458000,0.3764,0.2721,0,2,72.46,7.33
4.460000,0.3548,0.2695,0,2,72.46,7.33
4.462000,0.3407,0.2654,0,2,72.46,7.33
4.464000,0.3470,0.2604,0,2,72.46,7.33
4.466000,0.3290,0.2549,0,2,72.46,7.33
4.468000,0.3494,0.2496,0,2,72.46,7.33
4.470000,0.3079,0.2448,0,2,72.46,7.33
4.472000,0.3383,0.2404,0,2,72.46,7.33
4.474000,0.3128,0.2363,0,2,72.46,7.33
4.476000,0.3378,0.2321,0,2,72.46,7.33
4.478000,0.3192,0.2275,0,2,72.46,7.33
4.480000,0.2838,0.2220,0,2,72.46,7.33
4.482000,0.3015,0.2154,0,2,72.46,7.33
4.484000,0.2871,0.2075,0,2,72.46,7.33
4.486000,0.2830,0.1984,0,2,72.46,7.33
4.488000,0.2730,0.1883,0,2,72.46,7.33
4.490000,0.3014,0.1775,0,2,72.46,7.33
4.492000,0.2305,0.1666,0,2,72.46,7.33
4.494000,0.2037,0.1561,0,2,72.46,7.33
4.496000,0.2231,0.1462,0,2,72.46,7.33
4.498000,0.2240,0.1371,0,2,72.46,7.33
4.500000,0.2278,0.1287,0,2,72.46,7.33
4.502000,0.2028,0.1210,0,2,72.46,7.33
4.504000,0.2046,0.1137,0,2,72.46,7.33
4.506000,0.1662,0.1064,0,2,72.46,7.33
4.508000,0.1722,0.0990,0,2,72.46,7.33
4.510000,0.1529,0.0911,0,2,72.46,7.33
4.512000,0.1992,0.0827,0,2,72.46,7.33
4.514000,0.1444,0.0736,0,2,72.46,7.33
4.516000,0.1459,0.0638,0,2,72.46,7.33
4.518000,0.1347,0.0536,0,2,72.46,7.33
4.520000,0.1255,0.0431,0,2,72.46,7.33
4.522000,0.0902,0.0327,0,2,72.46,7.33
4.524000,0.0817,0.0227,0,2,72.46,7.33
4.526000,0.0871,0.0130,0,2,72.46,7.33
4.528000,0.0854,0.0037,0,2,72.46,7.33
4.530000,0.1174,-0.0052,0,2,72.46,7.33
4.532000,0.0450,-0.0138,0,2,72.46,7.33
4.534000,0.0512,-0.0219,0,2,72.46,7.33
4.536000,0.0212,-0.0296,0,2,72.46,7.33
4.538000,0.0411,-0.0367,0,2,72.46,7.33
4.540000,0.0471,-0.0431,0,2,72.46,7.33
4.542000,-0.0011,-0.0487,0,2,72.46,7.33
4.544000,0.0336,-0.0535,0,2,72.46,7.33
4.546000,0.0286,-0.0575,0,2,72.46,7.33
4.548000,0.0001,-0.0605,0,2,72.46,7.33
4.550000,0.0183,-0.0624,0,2,72.46,7.33
4.552000,0.0174,-0.0631,0,2,72.46,7.33
4.554000,0.0093,-0.0625,0,2,72.46,7.33
4.556000,-0.0079,-0.0609,0,2,72.46,7.33
4.558000,-0.0149,-0.0583,0,2,72.46,7.33
4.560000,0.0287,-0.0553,0,2,72.46,7.33
4.562000,0.0427,-0.0524,0,2,72.46,7.33
4.564000,0.0261,-0.0499,0,2,72.46,7.33
4.566000,-0.0049,-0.0482,0,2,72.46,7.33
4.568000,0.0482,-0.0477,0,2,72.46,7.33
4.570000,0.0178,-0.0484,0,2,72.46,7.33
4.572000,-0.0002,-0.0503,0,2,72.46,7.33
4.574000,0.0138,-0.0533,0,2,72.46,7.33
4.576000,0.0086,-0.0571,0,2,72.46,7.33
4.578000,0.0083,-0.0616,0,2,72.46,7.33
4.580000,0.0014,-0.0665,0,2,72.46,7.33
4.582000,-0.0101,-0.0714,0,2,72.46,7.33
4.584000,0.0252,-0.0756,0,2,72.46,7.33
4.586000,-0.0167,-0.0787,0,2,72.46,7.33
4.588000,-0.0093,-0.0800,0,2,72.46,7.33
4.590000,-0.0606,-0.0795,0,2,72.46,7.33
4.592000,-0.0111,-0.0769,0,2,72.46,7.33
4.594000,-0.0043,-0.0729,0,2,72.46,7.33
4.596000,-0.0044,-0.0681,0,2,72.46,7.33
4.598000,0.0310,-0.0632,0,2,72.46,7.33
4.600000,-0.0125,-0.0592,0,2,72.46,7.33
4.602000,0.0221,-0.0564,0,2,72.46,7.33
4.604000,0.0016,-0.0552,0,2,72.46,7.33
4.606000,0.0018,-0.0556,0,2,72.46,7.33
4.608000,-0.0020,-0.0573,0,2,72.46,7.33
4.610000,0.0102,-0.0598,0,2,72.46,7.33
4.612000,-0.0182,-0.0626,0,2,72.46,7.33
4.614000,0.0096,-0.0653,0,2,72.46,7.33
4.616000,0.0198,-0.0673,0,2,72.46,7.33
4.618000,-0.0136,-0.0682,0,2,72.46,7.33
4.620000,-0.0260,-0.0677,0,2,72.46,7.33
4.622000,-0.0268,-0.0657,0,2,72.46,7.33
4.624000,-0.0041,-0.0626,0,2,72.46,7.33
4.626000,0.0127,-0.0587,0,2,72.46,7.33
4.628000,-0.0029,-0.0549,0,2,72.46,7.33
4.630000,0.0305,-0.0517,0,2,72.46,7.33
4.632000,0.0228,-0.0499,0,2,72.46,7.33
4.634000,-0.0174,-0.0495,0,2,72.46,7.33
4.636000,0.0108,-0.0506,0,2,72.46,7.33
4.638000,0.0119,-0.0528,0,2,72.46,7.33
4.640000,0.0056,-0.0556,0,2,72.46,7.33
4.642000,-0.0312,-0.0581,0,2,72.46,7.33
4.644000,0.0173,-0.0599,0,2,72.46,7.33
4.646000,-0.0094,-0.0605,0,2,72.46,7.33
4.648000,-0.0057,-0.0596,0,2,72.46,7.33
4.650000,0.0061,-0.0573,0,2,72.46,7.33
4.652000,0.0000,-0.0540,0,2,72.46,7.33
4.654000,-0.0230,-0.0502,0,2,72.46,7.33
4.656000,0.0203,-0.0466,0,2,72.46,7.33
4.658000,0.0211,-0.0438,0,2,72.46,7.33
4.660000,0.0278,-0.0423,0,2,72.46,7.33
4.662000,-0.0164,-0.0422,0,2,72.46,7.33
4.664000,0.0097,-0.0435,0,2,72.46,7.33
4.666000,0.0128,-0.0455,0,2,72.46,7.33
4.668000,0.0382,-0.0478,0,2,72.46,7.33
4.670000,0.0225,-0.0496,0,2,72.46,7.33
4.672000,-0.0623,-0.0504,0,2,72.46,7.33
4.674000,-0.0149,-0.0498,0,2,72.46,7.33
4.676000,0.0306,-0.0479,0,2,72.46,7.33
4.678000,-0.0010,-0.0450,0,2,72.46,7.33
4.680000,0.0019,-0.0416,0,2,72.46,7.33
4.682000,0.0223,-0.0386,0,2,72.46,7.33
4.684000,0.0370,-0.0363,0,2,72.46,7.33
4.686000,0.0048,-0.0352,0,2,72.46,7.33
4.688000,0.0323,-0.0353,0,2,72.46,7.33
4.690000,-0.0078,-0.0366,0,2,72.46,7.33
4.692000,-0.0025,-0.0388,0,2,72.46,7.33
4.694000,-0.0087,-0.0416,0,2,72.46,7.33
4.696000,0.0208,-0.0448,0,2,72.46,7.33
4.698000,0.0360,-0.0481,0,2,72.46,7.33
4.700000,-0.0466,-0.0511,0,2,72.46,7.33
4.702000,0.0234,-0.0535,0,2,72.46,7.33
4.704000,-0.0296,-0.0551,0,2,72.46,7.33
4.706000,-0.0212,-0.0555,0,2,72.46,7.33
4.708000,0.0131,-0.0550,0,2,72.46,7.33
4.710000,0.0050,-0.0537,0,2,72.46,7.33
4.712000,-0.0353,-0.0519,0,2,72.46,7.33
4.714000,-0.0101,-0.0500,0,2,72.46,7.33
4.716000,0.0298,-0.0485,0,2,72.46,7.33
4.718000,-0.0172,-0.0476,0,2,72.46,7.33
4.720000,0.0097,-0.0473,0,2,72.46,7.33
4.722000,-0.0147,-0.0476,0,2,72.46,7.33
4.724000,-0.0018,-0.0481,0,2,72.46,7.33
4.726000,-0.0157,-0.0485,0,2,72.46,7.33
4.728000,-0.0065,-0.0486,0,2,72.46,7.33
4.730000,0.0364,-0.0481,0,2,72.46,7.33
4.732000,-0.0356,-0.0470,0,2,72.46,7.33
4.734000,-0.0197,-0.0455,0,2,72.46,7.33
4.736000,0.0149,-0.0438,0,2,72.46,7.33
4.738000,0.0250,-0.0421,0,2,72.46,7.33
4.740000,-0.0173,-0.0407,0,2,72.46,7.33
4.742000,-0.0180,-0.0398,0,2,72.46,7.33
4.744000,0.0051,-0.0395,0,2,72.46,7.33
4.746000,0.0062,-0.0398,0,2,72.46,7.33
4.748000,0.0224,-0.0406,0,2,72.46,7.33
4.750000,0.0013,-0.0418,0,2,72.46,7.33
4.752000,0.0138,-0.0432,0,2,72.46,7.33
4.754000,-0.0184,-0.0443,0,2,72.46,7.33
4.756000,-0.0315,-0.0450,0,2,72.46,7.33
4.758000,-0.0149,-0.0451,0,2,72.46,7.33
4.760000,-0.0031,-0.0445,0,2,72.46,7.33
4.762000,0.0304,-0.0434,0,2,72.46,7.33
4.764000,-0.0120,-0.0420,0,2,72.46,7.33
4.766000,-0.0069,-0.0404,0,2,72.46,7.33
4.768000,-0.0056,-0.0390,0,2,72.46,7.33
4.770000,0.0134,-0.0378,0,2,72.46,7.33
4.772000,-0.0051,-0.0370,0,2,72.46,7.33
4.774000,0.0190,-0.0366,0,2,72.46,7.33
4.776000,-0.0007,-0.0363,0,2,72.46,7.33
4.778000,0.0005,-0.0361,0,2,72.46,7.33
4.780000,-0.0180,-0.0355,0,2,72.46,7.33
4.782000,-0.0239,-0.0343,0,2,72.46,7.33
4.784000,0.0637,-0.0324,0,2,72.46,7.33
4.786000,-0.0002,-0.0296,0,2,72.46,7.33
4.788000,-0.0158,-0.0261,0,2,72.46,7.33
4.790000,0.0222,-0.0224,0,2,72.46,7.33
4.792000,0.0302,-0.0188,0,2,72.46,7.33
4.794000,0.0056,-0.0159,0,2,72.46,7.33
4.796000,0.0371,-0.0141,0,2,72.46,7.33
4.798000,0.0305,-0.0138,0,2,72.46,7.33
4.800000,0.0015,-0.0151,0,2,72.46,7.33
4.802000,0.0241,-0.0176,0,2,72.46,7.33
4.804000,0.0052,-0.0212,0,2,72.46,7.33
4.806000,0.0028,-0.0253,0,2,72.46,7.33
4.808000,0.0297,-0.0293,0,2,72.46,7.33
4.810000,0.0226,-0.0330,0,2,72.46,7.33
4.812000,-0.0298,-0.0358,0,2,72.46,7.33
4.814000,0.0238,-0.0377,0,2,72.46,7.33
4.816000,-0.0225,-0.0384,0,2,72.46,7.33
4.818000,-0.0407,-0.0382,0,2,72.46,7.33
4.820000,0.0144,-0.0373,0,2,72.46,7.33
4.822000,0.0062,-0.0360,0,2,72.46,7.33
4.824000,0.0156,-0.0348,0,2,72.46,7.33
4.826000,-0.0189,-0.0339,0,2,72.46,7.33
4.828000,0.0179,-0.0334,0,2,72.46,7.33
4.830000,-0.0034,-0.0334,0,2,72.46,7.33
4.832000,0.0316,-0.0338,0,2,72.46,7.33
4.834000,-0.0146,-0.0343,0,2,72.46,7.33
4.836000,-0.0179,-0.0346,0,2,72.46,7.33
4.838000,-0.0137,-0.0346,0,2,72.46,7.33
4.840000,-0.0063,-0.0342,0,2,72.46,7.33
4.842000,-0.0054,-0.0333,0,2,72.46,7.33
4.844000,0.0168,-0.0323,0,2,72.46,7.33
4.846000,0.0268,-0.0313,0,2,72.46,7.33
4.848000,-0.0105,-0.0307,0,2,72.46,7.33
4.850000,0.0012,-0.0306,0,2,72.46,7.33
4.852000,-0.0018,-0.0314,0,2,72.46,7.33
4.854000,0.0025,-0.0329,0,2,72.46,7.33
4.856000,-0.0020,-0.0350,0,2,72.46,7.33
4.858000,0.0173,-0.0374,0,2,72.46,7.33
4.860000,-0.0108,-0.0395,0,2,72.46,7.33
4.862000,-0.0295,-0.0409,0,2,72.46,7.33
4.864000,-0.0314,-0.0411,0,2,72.46,7.33
4.866000,-0.0014,-0.0400,0,2,72.46,7.33
4.868000,0.0150,-0.0376,0,2,72.46,7.33
4.870000,-0.0030,-0.0342,0,2,72.46,7.33
4.872000,0.0093,-0.0305,0,2,72.46,7.33
4.874000,0.0440,-0.0268,0,2,72.46,7.33
4.876000,-0.0147,-0.0234,0,2,72.46,7.33
4.878000,-0.0065,-0.0207,0,2,72.46,7.33
4.880000,-0.0107,-0.0187,0,2,72.46,7.33
4.882000,0.0413,-0.0175,0,2,72.46,7.33
4.884000,0.0223,-0.0171,0,2,72.46,7.33
4.886000,-0.0303,-0.0177,0,2,72.46,7.33
4.888000,0.0325,-0.0193,0,2,72.46,7.33
4.890000,0.0539,-0.0219,0,2,72.46,7.33
4.892000,0.0149,-0.0255,0,2,72.46,7.33
4.894000,0.0129,-0.0295,0,2,72.46,7.33
4.896000,-0.0180,-0.0334,0,2,72.46,7.33
4.898000,-0.0297,-0.0368,0,2,72.46,7.33
4.900000,-0.0151,-0.0391,0,2,72.46,7.33
4.902000,-0.0163,-0.0402,0,2,72.46,7.33
4.904000,-0.0142,-0.0403,0,2,72.46,7.33
4.906000,-0.0114,-0.0398,0,2,72.46,7.33
4.908000,0.0402,-0.0393,0,2,72.46,7.33
4.910000,0.0162,-0.0393,0,2,72.46,7.33
4.912000,0.0016,-0.0399,0,2,72.46,7.33
4.914000,-0.0108,-0.0413,0,2,72.46,7.33
4.916000,-0.0544,-0.0429,0,2,72.46,7.33
4.918000,-0.0269,-0.0443,0,2,72.46,7.33
4.920000,0.0023,-0.0451,0,2,72.46,7.33
4.922000,-0.0135,-0.0449,0,2,72.46,7.33
4.924000,0.0286,-0.0434,0,2,72.46,7.33
4.926000,-0.0332,-0.0407,0,2,72.46,7.33
4.928000,-0.0045,-0.0369,0,2,72.46,7.33
4.930000,0.0222,-0.0326,0,2,72.46,7.33
4.932000,0.0093,-0.0284,0,2,72.46,7.33
4.934000,-0.0033,-0.0250,0,2,72.46,7.33
4.936000,-0.0111,-0.0232,0,2,72.46,7.33
4.938000,0.0355,-0.0234,0,2,72.46,7.33
4.940000,0.0122,-0.0257,0,2,72.46,7.33
4.942000,-0.0202,-0.0300,0,2,72.46,7.33
4.944000,0.0051,-0.0356,0,2,72.46,7.33
4.946000,0.0131,-0.0416,0,2,72.46,7.33
4.948000,0.0077,-0.0468,0,2,72.46,7.33
4.950000,0.0245,-0.0502,0,2,72.46,7.33
4.952000,-0.0468,-0.0507,0,2,72.46,7.33
4.954000,-0.0164,-0.0478,0,2,72.46,7.33
4.956000,-0.0382,-0.0416,0,2,72.46,7.33
4.958000,-0.0458,-0.0329,0,2,72.46,7.33
4.960000,0.0142,-0.0229,0,2,72.46,7.33
4.962000,-0.0003,-0.1201,0,3,73.27,7.09
4.964000,-0.0303,-0.1165,0,3,73.27,7.09
4.966000,0.0382,-0.1127,0,3,73.27,7.09
4.968000,-0.0201,-0.1088,0,3,73.27,7.09
4.970000,-0.0022,-0.1051,0,3,73.27,7.09
4.972000,0.0053,-0.1017,0,3,73.27,7.09
4.974000,-0.0049,-0.0987,0,3,73.27,7.09
4.976000,-0.0168,-0.0963,0,3,73.27,7.09
4.978000,0.0616,-0.0946,0,3,73.27,7.09
4.980000,-0.0074,-0.0937,0,3,73.27,7.09
4.982000,0.0224,-0.0938,0,3,73.27,7.09
4.984000,0.0258,-0.0947,0,3,73.27,7.09
4.986000,-0.0322,-0.0961,0,3,73.27,7.09
4.988000,0.0278,-0.0977,0,3,73.27,7.09
4.990000,0.0440,-0.0991,0,3,73.27,7.09
4.992000,-0.0031,-0.1001,0,3,73.27,7.09
4.994000,-0.0334,-0.1002,0,3,73.27,7.09
4.996000,0.0225,-0.0995,0,3,73.27,7.09
4.998000,-0.0006,-0.0980,0,3,73.27,7.09
5.000000,0.0134,-0.0959,0,3,73.27,7.09
5.002000,0.0311,-0.0932,0,3,73.27,7.09
5.004000,0.0135,-0.0903,0,3,73.27,7.09
5.006000,0.0296,-0.0870,0,3,73.27,7.09
5.008000,0.0352,-0.0834,0,3,73.27,7.09
5.010000,0.0053,-0.0793,0,3,73.27,7.09
5.012000,0.0086,-0.0749,0,3,73.27,7.09
5.014000,0.0347,-0.0702,0,3,73.27,7.09
5.016000,0.0625,-0.0654,0,3,73.27,7.09
5.018000,0.0643,-0.0606,0,3,73.27,7.09
5.020000,0.0296,-0.0560,0,3,73.27,7.09
5.022000,0.0761,-0.0515,0,3,73.27,7.09
5.024000,0.0503,-0.0468,0,3,73.27,7.09
5.026000,0.0694,-0.0416,0,3,73.27,7.09
5.028000,0.0728,-0.0358,0,3,73.27,7.09
5.030000,0.0400,-0.0291,0,3,73.27,7.09
5.032000,0.1009,-0.0217,0,3,73.27,7.09
5.034000,0.1036,-0.0137,0,3,73.27,7.09
5.036000,0.0896,-0.0056,0,3,73.27,7.09
5.038000,0.1126,0.0024,0,3,73.27,7.09
5.040000,0.1545,0.0102,0,3,73.27,7.09
5.042000,0.1212,0.0178,0,3,73.27,7.09
5.044000,0.1072,0.0254,0,3,73.27,7.09
5.046000,0.1519,0.0331,0,3,73.27,7.09
5.048000,0.1133,0.0411,0,3,73.27,7.09
5.050000,0.1773,0.0491,0,3,73.27,7.09
5.052000,0.1444,0.0569,0,3,73.27,7.09
5.054000,0.1561,0.0639,0,3,73.27,7.09
5.056000,0.2427,0.0695,0,3,73.27,7.09
5.058000,0.1832,0.0734,0,3,73.27,7.09
5.060000,0.1510,0.0754,0,3,73.27,7.09
5.062000,0.1792,0.0756,0,3,73.27,7.09
5.064000,0.1878,0.0742,0,3,73.27,7.09
5.066000,0.1599,0.0717,0,3,73.27,7.09
5.068000,0.1707,0.0681,0,3,73.27,7.09
5.070000,0.1963,0.0639,0,3,73.27,7.09
5.072000,0.1757,0.0589,0,3,73.27,7.09
5.074000,0.1144,0.0534,0,3,73.27,7.09
5.076000,0.2098,0.0474,0,3,73.27,7.09
5.078000,0.1175,0.0408,0,3,73.27,7.09
5.080000,0.1560,0.0337,0,3,73.27,7.09
5.082000,0.1142,0.0261,0,3,73.27,7.09
5.084000,0.1105,0.0180,0,3,73.27,7.09
5.086000,0.1238,0.0096,0,3,73.27,7.09
5.088000,0.1387,0.0008,0,3,73.27,7.09
5.090000,0.0916,-0.0080,0,3,73.27,7.09
5.092000,0.0923,-0.0168,0,3,73.27,7.09
5.094000,0.0805,-0.0252,0,3,73.27,7.09
5.096000,0.0519,-0.0332,0,3,73.27,7.09
5.098000,0.0603,-0.0406,0,3,73.27,7.09
5.100000,0.0824,-0.0474,0,3,73.27,7.09
5.102000,0.0557,-0.0538,0,3,73.27,7.09
5.104000,0.0396,-0.0600,0,3,73.27,7.09
5.106000,0.0360,-0.0659,0,3,73.27,7.09
5.108000,0.0316,-0.0719,0,3,73.27,7.09
5.110000,0.0392,-0.0781,0,3,73.27,7.09
5.112000,0.0077,-0.0844,0,3,73.27,7.09
5.114000,0.0497,-0.0908,0,3,73.27,7.09
5.116000,0.0150,-0.0973,0,3,73.27,7.09
5.118000,-0.0186,-0.1035,0,3,73.27,7.09
5.120000,-0.0222,-0.1092,0,3,73.27,7.09
5.122000,0.0068,-0.1139,0,3,73.27,7.09
5.124000,-0.0336,-0.1170,0,3,73.27,7.09
5.126000,-0.0076,-0.1176,0,3,73.27,7.09
5.128000,0.0031,-0.1144,0,3,73.27,7.09
5.130000,0.0169,-0.1056,0,3,73.27,7.09
5.132000,0.0107,-0.0886,0,3,73.27,7.09
5.134000,0.0844,-0.0604,0,3,73.27,7.09
5.136000,0.0901,-0.0175,0,3,73.27,7.09
5.138000,0.1278,0.0435,0,3,73.27,7.09
5.140000,0.2395,0.1254,0,3,73.27,7.09
5.142000,0.3152,0.2298,0,3,73.27,7.09
5.144000,0.4947,0.3567,0,3,73.27,7.09
5.146000,0.5771,0.5037,0,3,73.27,7.09
5.148000,0.7737,0.6662,0,3,73.27,7.09
5.150000,0.9504,0.8371,0,3,73.27,7.09
5.152000,1.0862,1.0071,0,3,73.27,7.09
5.154000,1.2525,1.1654,0,3,73.27,7.09
5.156000,1.4196,1.3009,0,3,73.27,7.09
5.158000,1.5241,1.4029,0,3,73.27,7.09
5.160000,1.5595,1.4624,1,3,73.27,7.09
5.162000,1.6012,1.4733,1,3,73.27,7.09
5.164000,1.5662,1.4333,1,3,73.27,7.09
5.166000,1.4561,1.3442,0,3,73.27,7.09
5.168000,1.3448,1.2120,0,3,73.27,7.09
5.170000,1.1709,1.0463,0,3,73.27,7.09
5.172000,0.9393,0.8590,0,3,73.27,7.09
5.174000,0.7721,0.6635,0,3,73.27,7.09
5.176000,0.5493,0.4728,0,3,73.27,7.09
5.178000,0.3842,0.2984,0,3,73.27,7.09
5.180000,0.2532,0.1492,0,3,73.27,7.09
5.182000,0.1393,0.0305,0,3,73.27,7.09
5.184000,0.0424,-0.0555,0,3,73.27,7.09
5.186000,-0.0406,-0.1102,0,3,73.27,7.09
5.188000,-0.0170,-0.1376,0,3,73.27,7.09
5.190000,0.0070,-0.1435,0,3,73.27,7.09
5.192000,-0.0373,-0.1344,0,3,73.27,7.09
5.194000,0.0373,-0.1169,0,3,73.27,7.09
5.196000,0.0147,-0.0962,0,3,73.27,7.09
5.198000,0.0185,-0.0765,0,3,73.27,7.09
5.200000,0.0151,-0.0603,0,3,73.27,7.09
5.202000,0.0751,-0.0486,0,3,73.27,7.09
5.204000,0.0828,-0.0410,0,3,73.27,7.09
5.206000,0.0533,-0.0367,0,3,73.27,7.09
5.208000,0.0505,-0.0343,0,3,73.27,7.09
5.210000,0.0876,-0.0322,0,3,73.27,7.09
5.212000,0.0645,-0.0293,0,3,73.27,7.09
5.214000,0.0759,-0.0250,0,3,73.27,7.09
5.216000,0.0961,-0.0190,0,3,73.27,7.09
5.218000,0.0985,-0.0115,0,3,73.27,7.09
5.220000,0.1396,-0.0027,0,3,73.27,7.09
5.222000,0.1079,0.0068,0,3,73.27,7.09
5.224000,0.1033,0.0167,0,3,73.27,7.09
5.226000,0.1062,0.0267,0,3,73.27,7.09
5.228000,0.1715,0.0367,0,3,73.27,7.09
5.230000,0.1490,0.0464,0,3,73.27,7.09
5.232000,0.1769,0.0558,0,3,73.27,7.09
5.234000,0.1671,0.0650,0,3,73.27,7.09
5.236000,0.1717,0.0740,0,3,73.27,7.09
5.238000,0.1969,0.0830,0,3,73.27,7.09
5.240000,0.2056,0.0924,0,3,73.27,7.09
5.242000,0.2306,0.1023,0,3,73.27,7.09
5.244000,0.1791,0.1130,0,3,73.27,7.09
5.246000,0.2273,0.1245,0,3,73.27,7.09
5.248000,0.2308,0.1365,0,3,73.27,7.09
5.250000,0.2840,0.1488,0,3,73.27,7.09
5.252000,0.2734,0.1609,0,3,73.27,7.09
5.254000,0.2917,0.1725,0,3,73.27,7.09
5.256000,0.2723,0.1832,0,3,73.27,7.09
5.258000,0.2890,0.1928,0,3,73.27,7.09
5.260000,0.3545,0.2013,0,3,73.27,7.09
5.262000,0.2820,0.2087,0,3,73.27,7.09
5.264000,0.3085,0.2152,0,3,73.27,7.09
5.266000,0.3043,0.2210,0,3,73.27,7.09
5.268000,0.3882,0.2261,0,3,73.27,7.09
5.270000,0.3361,0.2306,0,3,73.27,7.09
5.272000,0.3295,0.2345,0,3,73.27,7.09
5.274000,0.3351,0.2378,0,3,73.27,7.09
5.276000,0.3410,0.2404,0,3,73.27,7.09
5.278000,0.3635,0.2421,0,3,73.27,7.09
5.280000,0.3598,0.2428,0,3,73.27,7.09
5.282000,0.3236,0.2423,0,3,73.27,7.09
5.284000,0.3503,0.2407,0,3,73.27,7.09
5.286000,0.3560,0.2381,0,3,73.27,7.09
5.288000,0.3733,0.2346,0,3,73.27,7.09
5.290000,0.3057,0.2305,0,3,73.27,7.09
5.292000,0.3241,0.2263,0,3,73.27,7.09
5.294000,0.3396,0.2219,0,3,73.27,7.09
5.296000,0.3252,0.2175,0,3,73.27,7.09
5.298000,0.3124,0.2128,0,3,73.27,7.09
5.300000,0.3034,0.2077,0,3,73.27,7.09
5.302000,0.3485,0.2018,0,3,73.27,7.09
5.304000,0.2887,0.1948,0,3,73.27,7.09
5.306000,0.2731,0.1865,0,3,73.27,7.09
5.308000,0.2677,0.1767,0,3,73.27,7.09
5.310000,0.3074,0.1655,0,3,73.27,7.09
5.312000,0.2502,0.1531,0,3,73.27,7.09
5.314000,0.2618,0.1399,0,3,73.27,7.09
5.316000,0.2283,0.1263,0,3,73.27,7.09
5.318000,0.2318,0.1129,0,3,73.27,7.09
5.320000,0.1923,0.1004,0,3,73.27,7.09
5.322000,0.1875,0.0893,0,3,73.27,7.09
5.324000,0.2063,0.0797,0,3,73.27,7.09
5.326000,0.1433,0.0716,0,3,73.27,7.09
5.328000,0.1762,0.0647,0,3,73.27,7.09
5.330000,0.1539,0.0582,0,3,73.27,7.09
5.332000,0.1816,0.0515,0,3,73.27,7.09
5.334000,0.1654,0.0439,0,3,73.27,7.09
5.336000,0.1478,0.0351,0,3,73.27,7.09
5.338000,0.1436,0.0251,0,3,73.27,7.09
5.340000,0.0917,0.0143,0,3,73.27,7.09
5.342000,0.1199,0.0033,0,3,73.27,7.09
5.344000,0.1180,-0.0073,0,3,73.27,7.09
5.346000,0.0675,-0.0168,0,3,73.27,7.09
5.348000,0.0494,-0.0249,0,3,73.27,7.09
5.350000,0.0777,-0.0315,0,3,73.27,7.09
5.352000,0.0804,-0.0371,0,3,73.27,7.09
5.354000,0.0823,-0.0420,0,3,73.27,7.09
5.356000,0.0843,-0.0467,0,3,73.27,7.09
5.358000,0.0590,-0.0514,0,3,73.27,7.09
5.360000,0.0433,-0.0561,0,3,73.27,7.09
5.362000,0.0326,-0.0607,0,3,73.27,7.09
5.364000,0.0309,-0.0650,0,3,73.27,7.09
5.366000,0.0321,-0.0687,0,3,73.27,7.09
5.368000,0.0333,-0.0717,0,3,73.27,7.09
5.370000,0.0366,-0.0744,0,3,73.27,7.09
5.372000,0.0421,-0.0768,0,3,73.27,7.09
5.374000,0.0387,-0.0793,0,3,73.27,7.09
5.376000,0.0199,-0.0820,0,3,73.27,7.09
5.378000,0.0261,-0.0851,0,3,73.27,7.09
5.380000,-0.0007,-0.0884,0,3,73.27,7.09
5.382000,0.0280,-0.0919,0,3,73.27,7.09
5.384000,0.0183,-0.0950,0,3,73.27,7.09
5.386000,-0.0002,-0.0977,0,3,73.27,7.09
5.388000,0.0075,-0.0995,0,3,73.27,7.09
5.390000,0.0021,-0.1005,0,3,73.27,7.09
5.392000,-0.0123,-0.1005,0,3,73.27,7.09
5.394000,0.0390,-0.1000,0,3,73.27,7.09
5.396000,0.0145,-0.0992,0,3,73.27,7.09
5.398000,0.0021,-0.0984,0,3,73.27,7.09
5.400000,-0.0111,-0.0980,0,3,73.27,7.09
5.402000,0.0215,-0.0982,0,3,73.27,7.09
5.404000,-0.0104,-0.0992,0,3,73.27,7.09
5.406000,0.0048,-0.1008,0,3,73.27,7.09
5.408000,0.0367,-0.1028,0,3,73.27,7.09
5.410000,0.0123,-0.1048,0,3,73.27,7.09
5.412000,0.0156,-0.1064,0,3,73.27,7.09
5.414000,-0.0380,-0.1071,0,3,73.27,7.09
5.416000,0.0021,-0.1067,0,3,73.27,7.09
5.418000,-0.0288,-0.1054,0,3,73.27,7.09
5.420000,-0.0011,-0.1036,0,3,73.27,7.09
5.422000,0.0147,-0.1021,0,3,73.27,7.09
5.424000,0.0226,-0.1014,0,3,73.27,7.09
5.426000,0.0331,-0.1019,0,3,73.27,7.09
5.428000,-0.0018,-0.1038,0,3,73.27,7.09
5.430000,0.0117,-0.1065,0,3,73.27,7.09
5.432000,-0.0015,-0.1095,0,3,73.27,7.09
5.434000,-0.0379,-0.1119,0,3,73.27,7.09
5.436000,-0.0028,-0.1132,0,3,73.27,7.09
5.438000,-0.0320,-0.1132,0,3,73.27,7.09
5.440000,0.0060,-0.1120,0,3,73.27,7.09
5.442000,-0.0051,-0.1100,0,3,73.27,7.09
5.444000,-0.0027,-0.1079,0,3,73.27,7.09
5.446000,0.0344,-0.1062,0,3,73.27,7.09
5.448000,0.0122,-0.1049,0,3,73.27,7.09
5.450000,-0.0012,-0.1042,0,3,73.27,7.09
5.452000,-0.0022,-0.1036,0,3,73.27,7.09
5.454000,0.0128,-0.1028,0,3,73.27,7.09
5.456000,-0.0323,-0.1015,0,3,73.27,7.09
5.458000,0.0146,-0.0995,0,3,73.27,7.09
5.460000,-0.0074,-0.0972,0,3,73.27,7.09
5.462000,0.0223,-0.0949,0,3,73.27,7.09
5.464000,0.0329,-0.0934,0,3,73.27,7.09
5.466000,0.0192,-0.0930,0,3,73.27,7.09
5.468000,0.0079,-0.0940,0,3,73.27,7.09
5.470000,0.0100,-0.0966,0,3,73.27,7.09
5.472000,0.0006,-0.1004,0,3,73.27,7.09
5.474000,0.0140,-0.1049,0,3,73.27,7.09
5.476000,0.0285,-0.1095,0,3,73.27,7.09
5.478000,-0.0579,-0.1134,0,3,73.27,7.09
5.480000,-0.0031,-0.1162,0,3,73.27,7.09
5.482000,0.0025,-0.1174,0,3,73.27,7.09
5.484000,-0.0367,-0.1170,0,3,73.27,7.09
5.486000,-0.0053,-0.1152,0,3,73.27,7.09
5.488000,0.0017,-0.1122,0,3,73.27,7.09
5.490000,0.0158,-0.1085,0,3,73.27,7.09
5.492000,0.0192,-0.1046,0,3,73.27,7.09
5.494000,-0.0067,-0.1007,0,3,73.27,7.09
5.496000,-0.0025,-0.0970,0,3,73.27,7.09
5.498000,0.0304,-0.0938,0,3,73.27,7.09
5.500000,-0.0085,-0.0910,0,3,73.27,7.09
5.502000,0.0329,-0.0887,0,3,73.27,7.09
5.504000,0.0063,-0.0872,0,3,73.27,7.09
5.506000,0.0062,-0.0865,0,3,73.27,7.09
5.508000,0.0437,-0.0868,0,3,73.27,7.09
5.510000,0.0390,-0.0880,0,3,73.27,7.09
5.512000,-0.0043,-0.0901,0,3,73.27,7.09
5.514000,0.0246,-0.0929,0,3,73.27,7.09
5.516000,-0.0223,-0.0961,0,3,73.27,7.09
5.518000,0.0647,-0.0992,0,3,73.27,7.09
5.520000,-0.0070,-0.1019,0,3,73.27,7.09
5.522000,-0.0130,-0.1037,0,3,73.27,7.09
5.524000,-0.0290,-0.1045,0,3,73.27,7.09
5.526000,0.0139,-0.1044,0,3,73.27,7.09
5.528000,0.0114,-0.1035,0,3,73.27,7.09
5.530000,0.0279,-0.1022,0,3,73.27,7.09
5.532000,0.0005,-0.1009,0,3,73.27,7.09
5.534000,-0.0098,-0.1001,0,3,73.27,7.09
5.536000,0.0189,-0.1000,0,3,73.27,7.09
5.538000,-0.0004,-0.1008,0,3,73.27,7.09
5.540000,0.0176,-0.1022,0,3,73.27,7.09
5.542000,-0.0116,-0.1042,0,3,73.27,7.09
5.544000,0.0234,-0.1064,0,3,73.27,7.09
5.546000,-0.0124,-0.1082,0,3,73.27,7.09
5.548000,-0.0019,-0.1094,0,3,73.27,7.09
5.550000,-0.0249,-0.1096,0,3,73.27,7.09
5.552000,0.0051,-0.1090,0,3,73.27,7.09
5.554000,-0.0000,-0.1077,0,3,73.27,7.09
5.556000,-0.0209,-0.1061,0,3,73.27,7.09
5.558000,0.0525,-0.1046,0,3,73.27,7.09
5.560000,0.0082,-0.1034,0,3,73.27,7.09
5.562000,-0.0293,-0.1027,0,3,73.27,7.09
5.564000,0.0223,-0.1022,0,3,73.27,7.09
5.566000,0.0192,-0.1016,0,3,73.27,7.09
5.568000,-0.0146,-0.1007,0,3,73.27,7.09
5.570000,0.0093,-0.0993,0,3,73.27,7.09
5.572000,-0.0140,-0.0974,0,3,73.27,7.09
5.574000,0.0140,-0.0955,0,3,73.27,7.09
5.576000,0.0043,-0.0939,0,3,73.27,7.09
5.578000,0.0515,-0.0932,0,3,73.27,7.09
5.580000,0.0227,-0.0939,0,3,73.27,7.09
5.582000,0.0142,-0.0959,0,3,73.27,7.09
5.584000,0.0190,-0.0990,0,3,73.27,7.09
5.586000,-0.0466,-0.1028,0,3,73.27,7.09
5.588000,-0.0105,-0.1066,0,3,73.27,7.09
5.590000,0.0259,-0.1100,0,3,73.27,7.09
5.592000,-0.0142,-0.1126,0,3,73.27,7.09
5.594000,0.0138,-0.1142,0,3,73.27,7.09
5.596000,-0.0151,-0.1147,0,3,73.27,7.09
5.598000,0.0119,-0.1141,0,3,73.27,7.09
5.600000,-0.0365,-0.1126,0,3,73.27,7.09
5.602000,-0.0048,-0.1104,0,3,73.27,7.09
5.604000,0.0126,-0.1078,0,3,73.27,7.09
5.606000,-0.0116,-0.1053,0,3,73.27,7.09
5.608000,-0.0125,-0.1032,0,3,73.27,7.09
5.610000,0.0220,-0.1020,0,3,73.27,7.09
5.612000,0.0252,-0.1017,0,3,73.27,7.09
5.614000,0.0283,-0.1024,0,3,73.27,7.09
5.616000,-0.0123,-0.1038,0,3,73.27,7.09
5.618000,-0.0202,-0.1056,0,3,73.27,7.09
5.620000,-0.0013,-0.1074,0,3,73.27,7.09
5.622000,-0.0085,-0.1089,0,3,73.27,7.09
5.624000,-0.0160,-0.1101,0,3,73.27,7.09
5.626000,0.0080,-0.1109,0,3,73.27,7.09
5.628000,0.0159,-0.1115,0,3,73.27,7.09
5.630000,-0.0109,-0.1118,0,3,73.27,7.09
5.632000,0.0160,-0.1120,0,3,73.27,7.09
5.634000,-0.0128,-0.1120,0,3,73.27,7.09
5.636000,-0.0170,-0.1117,0,3,73.27,7.09
5.638000,-0.0355,-0.1111,0,3,73.27,7.09
5.640000,0.0016,-0.1102,0,3,73.27,7.09
5.642000,0.0357,-0.1092,0,3,73.27,7.09
5.644000,0.0045,-0.1082,0,3,73.27,7.09
5.646000,0.0007,-0.1072,0,3,73.27,7.09
5.648000,-0.0389,-0.1061,0,3,73.27,7.09
5.650000,0.0113,-0.1051,0,3,73.27,7.09
5.652000,0.0109,-0.1042,0,3,73.27,7.09
5.654000,0.0198,-0.1035,0,3,73.27,7.09
5.656000,-0.0126,-0.1032,0,3,73.27,7.09
5.658000,-0.0115,-0.1036,0,3,73.27,7.09
5.660000,0.0227,-0.1047,0,3,73.27,7.09
5.662000,0.0135,-0.1066,0,3,73.27,7.09
5.664000,-0.0011,-0.1091,0,3,73.27,7.09
5.666000,-0.0353,-0.1119,0,3,73.27,7.09
5.668000,-0.0094,-0.1147,0,3,73.27,7.09
5.670000,0.0106,-0.1169,0,3,73.27,7.09
5.672000,-0.0241,-0.1183,0,3,73.27,7.09
5.674000,0.0264,-0.1186,0,3,73.27,7.09
5.676000,-0.0331,-0.1177,0,3,73.27,7.09
5.678000,-0.0184,-0.1154,0,3,73.27,7.09
5.680000,-0.0045,-0.1121,0,3,73.27,7.09
5.682000,-0.0046,-0.1081,0,3,73.27,7.09
5.684000,-0.0120,-0.1040,0,3,73.27,7.09
5.686000,0.0144,-0.1003,0,3,73.27,7.09
5.688000,0.0242,-0.0976,0,3,73.27,7.09
5.690000,0.0212,-0.0960,0,3,73.27,7.09
5.692000,0.0122,-0.0958,0,3,73.27,7.09
5.694000,0.0201,-0.0966,0,3,73.27,7.09
5.696000,-0.0100,-0.0982,0,3,73.27,7.09
5.698000,-0.0120,-0.1002,0,3,73.27,7.09
5.700000,0.0382,-0.1023,0,3,73.27,7.09
5.702000,-0.0229,-0.1041,0,3,73.27,7.09
5.704000,0.0039,-0.1058,0,3,73.27,7.09
5.706000,-0.0205,-0.1073,0,3,73.27,7.09
5.708000,0.0242,-0.1087,0,3,73.27,7.09
5.710000,0.0010,-0.1102,0,3,73.27,7.09
5.712000,0.0020,-0.1118,0,3,73.27,7.09
5.714000,0.0075,-0.1133,0,3,73.27,7.09
5.716000,-0.0288,-0.1145,0,3,73.27,7.09
5.718000,-0.0079,-0.1154,0,3,73.27,7.09
5.720000,-0.0283,-0.1157,0,3,73.27,7.09
5.722000,0.0173,-0.1154,0,3,73.27,7.09
5.724000,-0.0278,-0.1144,0,3,73.27,7.09
5.726000,0.0007,-0.1130,0,3,73.27,7.09
5.728000,-0.0002,-0.1113,0,3,73.27,7.09
5.730000,0.0183,-0.1094,0,3,73.27,7.09
5.732000,-0.0074,-0.1076,0,3,73.27,7.09
5.734000,-0.0368,-0.1060,0,3,73.27,7.09
5.736000,0.0288,-0.1049,0,3,73.27,7.09
5.738000,0.0129,-0.1043,0,3,73.27,7.09
5.740000,-0.0249,-0.1046,0,3,73.27,7.09
5.742000,0.0281,-0.1056,0,3,73.27,7.09
5.744000,0.0092,-0.1073,0,3,73.27,7.09
5.746000,-0.0146,-0.1094,0,3,73.27,7.09
5.748000,-0.0243,-0.1117,0,3,73.27,7.09
5.750000,-0.0164,-0.1137,0,3,73.27,7.09
5.752000,0.0198,-0.1152,0,3,73.27,7.09
5.754000,-0.0110,-0.1161,0,3,73.27,7.09
5.756000,-0.0038,-0.1160,0,3,73.27,7.09
5.758000,0.0118,-0.1151,0,3,73.27,7.09
5.760000,-0.0265,-0.1133,0,3,73.27,7.09
5.762000,-0.0319,-0.1107,0,3,73.27,7.09
5.764000,-0.0062,-0.1076,0,3,73.27,7.09
5.766000,0.0288,-0.1044,0,3,73.27,7.09
5.768000,0.0104,-0.1015,0,3,73.27,7.09
5.770000,0.0176,-0.0990,0,3,73.27,7.09
5.772000,-0.0080,-0.0973,0,3,73.27,7.09
5.774000,0.0222,-0.0964,0,3,73.27,7.09
5.776000,0.0105,-0.0961,0,3,73.27,7.09
5.778000,0.0065,-0.0964,0,3,73.27,7.09
5.780000,0.0104,-0.0972,0,3,73.27,7.09
5.782000,-0.0001,-0.0982,0,3,73.27,7.09
5.784000,0.0146,-0.0995,0,3,73.27,7.09
5.786000,-0.0073,-0.1008,0,3,73.27,7.09
5.788000,0.0241,-0.1020,0,3,73.27,7.09
5.790000,0.0167,-0.1030,0,3,73.27,7.09
5.792000,-0.0300,-0.1038,0,3,73.27,7.09
5.794000,0.0027,-0.1042,0,3,73.27,7.09
5.796000,0.0252,-0.1041,0,3,73.27,7.09
5.798000,0.0143,-0.1035,0,3,73.27,7.09
5.800000,-0.0074,-0.1024,0,3,73.27,7.09
5.802000,0.0099,-0.1008,0,3,73.27,7.09
5.804000,0.0003,-0.0988,0,3,73.27,7.09
5.806000,0.0147,-0.0965,0,3,73.27,7.09
5.808000,-0.0047,-0.0941,0,3,73.27,7.09
5.810000,-0.0036,-0.0921,0,3,73.27,7.09
5.812000,0.0292,-0.0908,0,3,73.27,7.09
5.814000,0.0451,-0.0906,0,3,73.27,7.09
5.816000,0.0279,-0.0915,0,3,73.27,7.09
5.818000,0.0087,-0.0933,0,3,73.27,7.09
5.820000,-0.0071,-0.0954,0,3,73.27,7.09
5.822000,0.0286,-0.0970,0,3,73.27,7.09
5.824000,0.0055,-0.0975,0,3,73.27,7.09
5.826000,-0.0013,-0.0960,0,3,73.27,7.09
5.828000,0.0026,-0.0923,0,3,73.27,7.09
5.830000,0.0246,-0.0863,0,3,73.27,7.09
5.832000,0.0229,-0.0786,0,3,73.27,7.09
5.834000,0.0344,-0.0698,0,3,73.27,7.09
5.836000,0.0665,-0.0610,0,3,73.27,7.09
5.838000,0.0489,-0.0531,0,3,73.27,7.09
5.840000,0.0691,-0.0465,0,3,73.27,7.09
5.842000,0.0727,-0.0417,0,3,73.27,7.09
5.844000,0.0692,-0.0382,0,3,73.27,7.09
5.846000,0.0508,-0.0355,0,3,73.27,7.09
5.848000,0.1022,-0.0327,0,3,73.27,7.09
5.850000,0.0740,-0.0288,0,3,73.27,7.09
5.852000,0.0690,-0.0229,0,3,73.27,7.09
5.854000,0.0677,-0.0147,0,3,73.27,7.09
5.856000,0.1043,-0.0043,0,3,73.27,7.09
5.858000,0.1186,0.0080,0,3,73.27,7.09
5.860000,0.1641,0.0214,0,3,73.27,7.09
5.862000,0.1399,0.0349,0,3,73.27,7.09
5.864000,0.1597,0.0479,0,3,73.27,7.09
5.866000,0.1505,0.0596,0,3,73.27,7.09
5.868000,0.1795,0.0695,0,3,73.27,7.09
5.870000,0.1564,0.0774,0,3,73.27,7.09
5.872000,0.1815,0.0829,0,3,73.27,7.09
5.874000,0.2304,0.0859,0,3,73.27,7.09
5.876000,0.2200,0.0864,0,3,73.27,7.09
5.878000,0.1743,0.0845,0,3,73.27,7.09
5.880000,0.1793,0.0807,0,3,73.27,7.09
5.882000,0.1806,0.0754,0,3,73.27,7.09
5.884000,0.1710,0.0690,0,3,73.27,7.09
5.886000,0.1345,0.0619,0,3,73.27,7.09
5.888000,0.1797,0.0545,0,3,73.27,7.09
5.890000,0.1879,0.0470,0,3,73.27,7.09
5.892000,0.1461,0.0397,0,3,73.27,7.09
5.894000,0.1291,0.0328,0,3,73.27,7.09
5.896000,0.1424,0.0266,0,3,73.27,7.09
5.898000,0.1233,0.0210,0,3,73.27,7.09
5.900000,0.1164,0.0161,0,3,73.27,7.09
5.902000,0.1204,0.0116,0,3,73.27,7.09
5.904000,0.0850,0.0070,0,3,73.27,7.09
5.906000,0.1240,0.0018,0,3,73.27,7.09
5.908000,0.0888,-0.0046,0,3,73.27,7.09
5.910000,0.1374,-0.0125,0,3,73.27,7.09
5.912000,0.0837,-0.0221,0,3,73.27,7.09
5.914000,0.0771,-0.0331,0,3,73.27,7.09
5.916000,0.0433,-0.0450,0,3,73.27,7.09
5.918000,0.0442,-0.0571,0,3,73.27,7.09
5.920000,0.0327,-0.0686,0,3,73.27,7.09
5.922000,0.0585,-0.0786,0,3,73.27,7.09
5.924000,0.0229,-0.0865,0,3,73.27,7.09
5.926000,0.0071,-0.0919,0,3,73.27,7.09
5.928000,-0.0094,-0.0946,0,3,73.27,7.09
5.930000,-0.0044,-0.0950,0,3,73.27,7.09
5.932000,0.0368,-0.0939,0,3,73.27,7.09
5.934000,0.0087,-0.0923,0,3,73.27,7.09
5.936000,0.0099,-0.0914,0,3,73.27,7.09
5.938000,0.0319,-0.0922,0,3,73.27,7.09
5.940000,0.0226,-0.0949,0,3,73.27,7.09
5.942000,0.0174,-0.0993,0,3,73.27,7.09
5.944000,-0.0349,-0.1041,0,3,73.27,7.09
5.946000,0.0033,-0.1072,0,3,73.27,7.09
5.948000,0.0073,-0.1055,0,3,73.27,7.09
5.950000,0.0203,-0.0954,0,3,73.27,7.09
5.952000,0.0334,-0.0727,0,3,73.27,7.09
5.954000,0.1106,-0.0332,0,3,73.27,7.09
5.956000,0.1170,0.0267,0,3,73.27,7.09
5.958000,0.2400,0.1100,0,3,73.27,7.09
5.960000,0.2853,0.2179,0,3,73.27,7.09
5.962000,0.4570,0.3496,0,3,73.27,7.09
5.964000,0.5888,0.5021,0,3,73.27,7.09
5.966000,0.8129,0.6698,0,3,73.27,7.09
5.968000,0.8917,0.8446,0,3,73.27,7.09
5.970000,1.1391,1.0168,0,3,73.27,7.09
5.972000,1.2596,1.1754,0,3,73.27,7.09
5.974000,1.4360,1.3094,0,3,73.27,7.09
5.976000,1.5558,1.4086,0,3,73.27,7.09
5.978000,1.5706,1.4650,1,3,73.27,7.09
5.980000,1.5710,1.4734,1,3,73.27,7.09
5.982000,1.5424,1.4323,1,3,73.27,7.09
5.984000,1.4565,1.3438,0,3,73.27,7.09
5.986000,1.3431,1.2139,0,3,73.27,7.09
5.988000,1.1559,1.0516,0,3,73.27,7.09
5.990000,0.9768,0.8683,0,3,73.27,7.09
5.992000,0.7970,0.6765,0,3,73.27,7.09
5.994000,0.5921,0.4887,0,3,73.27,7.09
5.996000,0.4129,0.3161,0,3,73.27,7.09
5.998000,0.2607,0.1673,0,3,73.27,7.09
6.000000,0.1024,0.0479,0,3,73.27,7.09
6.002000,0.0504,-0.0400,0,3,73.27,7.09
6.004000,0.0054,-0.0978,0,3,73.27,7.09
6.006000,-0.0145,-0.1294,0,3,73.27,7.09
6.008000,-0.0122,-0.1405,0,3,73.27,7.09
6.010000,0.0166,-0.1373,0,3,73.27,7.09
6.012000,0.0092,-0.1257,0,3,73.27,7.09
6.014000,0.0031,-0.1104,0,3,73.27,7.09
6.016000,-0.0083,-0.0947,0,3,73.27,7.09
6.018000,0.0306,-0.0802,0,3,73.27,7.09
6.020000,0.0142,-0.0675,0,3,73.27,7.09
6.022000,0.0364,-0.0565,0,3,73.27,7.09
6.024000,0.0554,-0.0467,0,3,73.27,7.09
6.026000,0.0882,-0.0373,0,3,73.27,7.09
6.028000,0.0472,-0.0281,0,3,73.27,7.09
6.030000,0.1101,-0.0190,0,3,73.27,7.09
6.032000,0.0865,-0.0102,0,3,73.27,7.09
6.034000,0.1174,-0.0019,0,3,73.27,7.09
6.036000,0.1180,0.0056,0,3,73.27,7.09
6.038000,0.1369,0.0120,0,3,73.27,7.09
6.040000,0.1127,0.0175,0,3,73.27,7.09
6.042000,0.1284,0.0224,0,3,73.27,7.09
6.044000,0.1473,0.0273,0,3,73.27,7.09
6.046000,0.1221,0.0328,0,3,73.27,7.09
6.048000,0.1391,0.0394,0,3,73.27,7.09
6.050000,0.1469,0.0476,0,3,73.27,7.09
6.052000,0.1612,0.0573,0,3,73.27,7.09
6.054000,0.1904,0.0683,0,3,73.27,7.09
6.056000,0.1782,0.0804,0,3,73.27,7.09
6.058000,0.2344,0.0929,0,3,73.27,7.09
6.060000,0.2135,0.1056,0,3,73.27,7.09
6.062000,0.2087,0.1181,0,3,73.27,7.09
6.064000,0.2250,0.1302,0,3,73.27,7.09
6.066000,0.2320,0.1418,0,3,73.27,7.09
6.068000,0.2769,0.1528,0,3,73.27,7.09
6.070000,0.2932,0.1631,0,3,73.27,7.09
6.072000,0.2491,0.1726,0,3,73.27,7.09
6.074000,0.3023,0.1814,0,3,73.27,7.09
6.076000,0.3050,0.1893,0,3,73.27,7.09
6.078000,0.2979,0.1967,0,3,73.27,7.09
6.080000,0.3187,0.2035,0,3,73.27,7.09
6.082000,0.3089,0.2098,0,3,73.27,7.09
6.084000,0.3121,0.2159,0,3,73.27,7.09
6.086000,0.3396,0.2218,0,3,73.27,7.09
6.088000,0.3311,0.2275,0,3,73.27,7.09
6.090000,0.3256,0.2327,0,3,73.27,7.09
6.092000,0.3494,0.2374,0,3,73.27,7.09
6.094000,0.3620,0.2412,0,3,73.27,7.09
6.096000,0.3642,0.2440,0,3,73.27,7.09
6.098000,0.3339,0.2457,0,3,73.27,7.09
6.100000,0.3710,0.2462,0,3,73.27,7.09
6.102000,0.3437,0.2456,0,3,73.27,7.09
6.104000,0.3408,0.2440,0,3,73.27,7.09
6.106000,0.3344,0.2414,0,3,73.27,7.09
6.108000,0.3586,0.2379,0,3,73.27,7.09
6.110000,0.3579,0.2336,0,3,73.27,7.09
6.112000,0.3079,0.2284,0,3,73.27,7.09
6.114000,0.3324,0.2225,0,3,73.27,7.09
6.116000,0.3595,0.2159,0,3,73.27,7.09
6.118000,0.2888,0.2088,0,3,73.27,7.09
6.120000,0.3415,0.2014,0,3,73.27,7.09
6.122000,0.2781,0.1940,0,3,73.27,7.09
6.124000,0.2811,0.1866,0,3,73.27,7.09
6.126000,0.2725,0.1792,0,3,73.27,7.09
6.128000,0.2650,0.1714,0,3,73.27,7.09
6.130000,0.2926,0.1629,0,3,73.27,7.09
6.132000,0.2866,0.1534,0,3,73.27,7.09
6.134000,0.2571,0.1424,0,3,73.27,7.09
6.136000,0.2192,0.1300,0,3,73.27,7.09
6.138000,0.2122,0.1164,0,3,73.27,7.09
6.140000,0.2021,0.1019,0,3,73.27,7.09
6.142000,0.2198,0.0870,0,3,73.27,7.09
6.144000,0.1747,0.0723,0,3,73.27,7.09
6.146000,0.1497,0.0583,0,3,73.27,7.09
6.148000,0.1684,0.0453,0,3,73.27,7.09
6.150000,0.1132,0.0337,0,3,73.27,7.09
6.152000,0.1459,0.0235,0,3,73.27,7.09
