timestamp_s,filtered_mV,loop,hr_bpm,snr_wb_db,snr_qrs_db
0.168000,-81.1250,0,,,
0.178000,-79.6250,0,,,
0.188000,-83.1250,0,,,
0.198000,-83.2500,0,,,
0.208000,-78.5000,0,,,
0.218000,-85.2500,0,,,
0.228000,-82.7500,0,,,
0.238000,-75.8750,0,,,
0.248000,-79.0000,0,,,
0.258000,-80.3750,0,,,
0.268000,-79.7500,0,,,
0.278000,-79.6250,0,,,
0.288000,-85.1250,0,,,
0.298000,-73.2500,0,,,
0.308000,-76.5000,0,,,
0.318000,-81.1250,0,,,
0.328000,-80.8750,0,,,
0.338000,-80.1250,0,,,
0.348000,-80.3750,0,,,
0.358000,-83.8750,0,,,
0.368000,-79.2500,0,,,
0.378000,-75.3750,0,,,
0.388000,-82.2500,0,,,
0.398000,-82.1250,0,,,
0.408000,-80.8750,0,,,
0.418000,-83.2500,0,,,
0.428000,-82.2500,0,,,
0.438000,-78.0000,0,,,
0.448000,-81.1250,0,,,
0.458000,-81.1250,0,,,
0.468000,-80.1250,0,,,
0.478000,-79.7500,0,,,
0.488000,-82.1250,0,,,
0.498000,-79.3750,0,,,
0.508000,-79.8750,0,,,
0.518000,-78.3750,0,,,
0.528000,-82.1250,0,,,
0.538000,-81.2500,0,,,
0.548000,-78.1250,0,,,
0.558000,-82.1250,0,,,
0.568000,-81.3750,0,,,
0.578000,-83.1250,0,,,
0.588000,-81.7500,0,,,
0.598000,-82.6250,0,,,
0.608000,-80.2500,0,,,
0.618000,-84.2500,0,,,
0.628000,-81.5000,0,,,
0.638000,-78.5000,0,,,
0.648000,-82.8750,0,,,
0.658000,-82.3750,0,,,
0.668000,-82.1250,0,,,
0.678000,-80.8750,0,,,
0.688000,-80.0000,0,,,
0.698000,-85.1250,0,,,
0.708000,-81.8750,0,,,
0.718000,-79.1250,0,,,
0.728000,-80.5000,0,,,
0.738000,-80.6250,0,,,
0.748000,-81.3750,0,,,
0.758000,-82.1250,0,,,
0.768000,-81.3750,0,,,
0.778000,-83.0000,0,,,
0.788000,-81.8750,0,,,
0.798000,-78.7500,0,,,
0.808000,-77.6250,0,,,
0.818000,-80.0000,0,,,
0.828000,-81.2500,0,,,
0.838000,-81.1250,0,,,
0.848000,-82.3750,0,,,
0.858000,-82.1250,0,,,
0.868000,-82.2500,0,,,
0.878000,-84.3750,0,,,
0.888000,-80.6250,0,,,
0.898000,-81.7500,0,,,
0.908000,-78.6250,0,,,
0.918000,-79.0000,0,,,
0.928000,-81.0000,0,,,
0.938000,-83.8750,0,,,
0.948000,-81.8750,0,,,
0.958000,-81.6250,0,,,
0.968000,-77.2500,0,,,
0.978000,-80.7500,0,,,
0.988000,-80.5000,0,,,
0.998000,-85.8750,0,,,
1.008000,-76.6250,0,,,
1.018000,-85.3750,0,,,
1.028000,-81.2500,0,,,
1.038000,-79.2500,0,,,
1.048000,-79.0000,0,,,
1.058000,-69.2500,0,,,
1.068000,-79.6250,0,,,
1.078000,-73.6250,0,,,
1.088000,-76.0000,0,,,
1.098000,-82.7500,0,,,
1.108000,-82.3750,0,,,
1.118000,-79.7500,0,,,
1.128000,-77.7500,0,,,
1.138000,-83.6250,0,,,
1.148000,-81.8750,0,,,
1.158000,-80.5000,0,,,
1.168000,-78.2500,0,,,
1.178000,-76.6250,0,,,
1.188000,-79.8750,0,,,
1.198000,-83.5000,0,,,
1.208000,-84.3750,0,,,
1.218000,-77.7500,0,,,
1.228000,-73.8750,0,,,
1.238000,-77.0000,0,,,
1.248000,-81.5000,0,,,
1.258000,-84.2500,0,,,
1.268000,-80.3750,0,,,
1.278000,-74.8750,0,,,
1.288000,-75.7500,0,,,
1.298000,-78.8750,0,,,
1.308000,-81.1250,0,,,
1.318000,-80.1250,0,,,
1.328000,-88.1250,0,,,
1.338000,-76.7500,0,,,
1.348000,-73.7500,0,,,
1.358000,-81.7500,0,,,
1.368000,-83.0000,0,,,
1.378000,-82.3750,0,,,
1.388000,-82.1250,0,,,
1.398000,-81.6250,0,,,
1.408000,-74.0000,0,,,
1.418000,-78.6250,0,,,
1.428000,-73.3750,0,,,
1.438000,-82.8750,0,,,
1.448000,-82.8750,0,,,
1.458000,-82.2500,0,,,
1.468000,-84.6250,0,,,
1.478000,-81.6250,0,,,
1.488000,-88.1250,0,,,
1.498000,-84.0000,0,,,
1.508000,-85.8750,0,,,
1.518000,-80.1250,0,,,
1.528000,-82.5000,0,,,
1.538000,-84.3750,0,,,
1.548000,-75.3750,0,,,
1.558000,-75.7500,0,,,
1.568000,-72.1250,0,,,
1.578000,-78.8750,0,,,
1.588000,-80.1250,0,,,
1.598000,-77.2500,0,,,
1.608000,-81.2500,0,,,
1.618000,-82.2500,0,,,
1.628000,-83.7500,0,,,
1.638000,-76.8750,0,,,
1.648000,-85.1250,0,,,
1.658000,-83.8750,0,,,
1.668000,-82.1250,0,,,
1.678000,-78.2500,0,,,
1.688000,-84.1250,0,,,
1.698000,-82.5000,0,,,
1.708000,-79.1250,0,,,
1.718000,-82.0000,0,,,
1.728000,-80.1250,0,,,
1.738000,-86.1250,0,,,
1.748000,-78.7500,0,,,
1.758000,-83.7500,0,,,
1.768000,-77.8750,0,,,
1.778000,-79.3750,0,,,
1.788000,-76.6250,0,,,
1.798000,-84.1250,0,,,
1.808000,-83.0000,0,,,
1.818000,-79.6250,0,,,
1.828000,-73.8750,0,,,
1.838000,-82.3750,0,,,
1.848000,-77.0000,0,,,
1.858000,-84.3750,0,,,
1.868000,-83.6250,0,,,
1.878000,-78.1250,0,,,
1.888000,-84.7500,0,,,
1.898000,-79.1250,0,,,
1.908000,-81.5000,0,,,
1.918000,-80.5000,0,,,
1.928000,-79.0000,0,,,
1.938000,-80.0000,0,,,
1.948000,-80.0000,0,,,
1.958000,-77.2500,0,,,
1.968000,-82.0000,0,,,
1.978000,-77.6250,0,,,
1.988000,-81.1250,0,,,
1.998000,-78.3750,0,,,
2.008000,-78.1250,0,,,
2.018000,-77.7500,0,,,
2.028000,-76.6250,0,,,
2.038000,-84.3750,0,,,
2.048000,-79.1250,0,,,
2.058000,-82.6250,0,,,
2.068000,-81.3750,0,,,
2.078000,-83.8750,0,,,
2.088000,-92.1250,0,,,
2.098000,-71.5000,0,,,
2.108000,-79.1250,0,,,
2.118000,-81.3750,0,,,
2.128000,-77.5000,0,,,
2.138000,-78.1250,0,,,
2.148000,-77.7500,0,,,
2.158000,-73.6250,0,,,
2.168000,-74.2500,0,,,
2.178000,-78.3750,0,,,
2.188000,-75.0000,0,,,
2.198000,-68.5000,0,,,
2.208000,-81.5000,0,,,
2.218000,-74.8750,0,,,
2.228000,-73.5000,0,,,
2.238000,-71.0000,0,,,
2.248000,-86.2500,0,,,
2.258000,-83.5000,0,,,
2.268000,-84.3750,0,,,
2.278000,-80.3750,0,,,
2.288000,-75.5000,0,,,
2.298000,-79.8750,0,,,
2.308000,-78.7500,0,,,
2.318000,-76.8750,0,,,
2.328000,-75.5000,0,,,
2.338000,-77.8750,0,,,
2.348000,-76.8750,0,,,
2.358000,-74.2500,0,,,
2.368000,-74.7500,0,,,
2.378000,-77.2500,0,,,
2.388000,-84.6250,0,,,
2.398000,-85.7500,0,,,
2.408000,-80.7500,0,,,
2.418000,-78.6250,0,,,
2.428000,-78.2500,0,,,
2.438000,-76.3750,0,,,
2.448000,-80.3750,0,,,
2.458000,-83.1250,0,,,
2.468000,-80.5000,0,,,
2.478000,-74.1250,0,,,
2.488000,-87.2500,0,,,
2.498000,-71.3750,0,,,
2.508000,-76.3750,0,,,
2.518000,-77.3750,0,,,
2.528000,-85.3750,0,,,
2.538000,-81.0000,0,,,
2.548000,-78.8750,0,,,
2.558000,-81.1250,0,,,
2.568000,-77.8750,0,,,
2.578000,-83.6250,0,,,
2.588000,-78.3750,0,,,
2.598000,-75.8750,0,,,
2.608000,-74.3750,0,,,
2.618000,-77.2500,0,,,
2.628000,-77.8750,0,,,
2.638000,-77.1250,0,,,
2.648000,-80.7500,0,,,
2.658000,-76.6250,0,,,
2.668000,-77.3750,0,,,
2.678000,-85.1250,0,,,
2.688000,-75.7500,0,,,
2.698000,-79.5000,0,,,
2.708000,-76.2500,0,,,
2.718000,-78.7500,0,,,
2.728000,-74.5000,0,,,
2.738000,-78.8750,0,,,
2.748000,-81.3750,0,,,
2.758000,-73.3750,0,,,
2.768000,-72.2500,0,,,
2.778000,-80.6250,0,,,
2.788000,-73.2500,0,,,
2.798000,-79.3750,0,,,
2.808000,-78.8750,0,,,
2.818000,-70.3750,0,,,
2.828000,-78.5000,0,,,
2.838000,-76.5000,0,,,
2.848000,-73.5000,0,,,
2.858000,-79.7500,0,,,
2.868000,-76.6250,0,,,
2.878000,-81.8750,0,,,
2.888000,-80.8750,0,,,
2.898000,-77.5000,0,,,
2.908000,-79.0000,0,,,
2.918000,-79.8750,0,,,
2.928000,-80.8750,0,,,
2.938000,-74.2500,0,,,
2.948000,-77.1250,0,,,
2.958000,-79.3750,0,,,
2.968000,-78.7500,0,,,
2.978000,-75.8750,0,,,
2.988000,-80.1250,0,,,
2.998000,-78.1250,0,,,
3.008000,-82.5000,0,,,
3.018000,-81.7500,0,,,
3.028000,-81.1250,0,,,
3.038000,-76.7500,0,,,
3.048000,-79.1250,0,,,
3.058000,-84.2500,0,,,
3.068000,-77.8750,0,,,
3.078000,-76.3750,0,,,
3.088000,-83.2500,0,,,
3.098000,-83.0000,0,,,
3.108000,-81.2500,0,,,
3.118000,-76.5000,0,,,
3.128000,-81.6250,0,,,
3.138000,-76.7500,0,,,
3.148000,-81.2500,0,,,
3.158000,-79.2500,0,,,
3.168000,-76.1250,0,,,
3.178000,-73.6250,0,,,
3.188000,-77.6250,0,,,
3.198000,-83.1250,0,,,
3.208000,-69.8750,0,,,
3.218000,-74.3750,0,,,
3.228000,-86.8750,0,,,
3.238000,-69.8750,0,,,
3.248000,-79.5000,0,,,
3.258000,-83.1250,0,,,
3.268000,-81.1250,0,,,
3.278000,-78.5000,0,,,
3.288000,-80.8750,0,,,
3.298000,-82.0000,0,,,
3.308000,-79.3750,0,,,
3.318000,-82.8750,0,,,
3.328000,-75.0000,0,,,
3.338000,-82.0000,0,,,
3.348000,-75.8750,0,,,
3.358000,-78.8750,0,,,
3.368000,-77.8750,0,,,
3.378000,-76.5000,0,,,
3.388000,-78.1250,0,,,
3.398000,-78.3750,0,,,
3.408000,-69.7500,0,,,
3.418000,-82.7500,0,,,
3.428000,-85.0000,0,,,
3.438000,-67.8750,0,,,
3.448000,-71.0000,0,,,
3.458000,-77.1250,0,,,
3.468000,-70.2500,0,,,
3.478000,-88.8750,0,,,
3.488000,-73.0000,0,,,
3.498000,-70.1250,0,,,
3.508000,-75.6250,0,,,
3.518000,-71.3750,0,,,
3.528000,-77.8750,0,,,
3.538000,-75.7500,0,,,
3.548000,-81.2500,0,,,
3.558000,-72.5000,0,,,
3.568000,-76.7500,0,,,
3.578000,-86.5000,0,,,
3.588000,-71.0000,0,,,
3.598000,-67.2500,0,,,
3.608000,-73.3750,0,,,
3.618000,-82.5000,0,,,
3.628000,-78.7500,0,,,
3.638000,-77.6250,0,,,
3.648000,-85.7500,0,,,
3.658000,-66.2500,0,,,
3.668000,-78.0000,0,,,
3.678000,-68.1250,0,,,
3.688000,-81.1250,0,,,
3.698000,-78.8750,0,,,
3.708000,-87.8750,0,,,
3.718000,-72.1250,0,,,
3.728000,-64.8750,0,,,
3.738000,-74.5000,0,,,
3.748000,-78.8750,0,,,
3.758000,-79.0000,0,,,
3.768000,-85.2500,0,,,
3.778000,-78.0000,0,,,
3.788000,-85.6250,0,,,
3.798000,-75.6250,0,,,
3.808000,-80.2500,0,,,
3.818000,-76.3750,0,,,
3.828000,-85.6250,0,,,
3.838000,-71.5000,0,,,
3.848000,-77.0000,0,,,
3.858000,-81.5000,0,,,
3.868000,-87.5000,0,,,
3.878000,-84.2500,0,,,
3.888000,-86.3750,0,,,
3.898000,-70.0000,0,,,
3.908000,-82.8750,0,,,
3.918000,-69.7500,0,,,
3.928000,-82.6250,0,,,
3.938000,-84.8750,0,,,
3.948000,-80.8750,0,,,
3.958000,-78.8750,0,,,
3.968000,-72.7500,0,,,
3.978000,-82.7500,0,,,
3.988000,-81.1250,0,,,
3.998000,-74.7500,0,,,
4.008000,-69.8750,0,,,
4.018000,-79.0000,0,,,
4.028000,-75.2500,0,,,
4.038000,-67.1250,0,,,
4.048000,-82.5000,0,,,
4.058000,-70.5000,0,,,
4.068000,-74.1250,0,,,
4.078000,-77.1250,0,,,
4.088000,-49.2500,0,,,
4.098000,-81.3750,0,,,
4.108000,-73.3750,0,,,
4.118000,-64.1250,0,,,
4.128000,-80.1250,0,,,
4.138000,-78.1250,0,,,
4.148000,-86.1250,0,,,
4.158000,-81.2500,0,,,
4.168000,-73.8750,0,,,
4.178000,-69.8750,0,,,
4.188000,-76.1250,0,,,
4.198000,-72.3750,0,,,
4.208000,-70.6250,0,,,
4.218000,-67.1250,0,,,
4.228000,-73.8750,0,,,
4.238000,-76.2500,0,,,
4.248000,-53.7500,0,,,
4.258000,-87.7500,0,,,
4.268000,-78.1250,0,,,
4.278000,-66.8750,0,,,
4.288000,-78.8750,0,,,
4.298000,-74.1250,0,,,
4.308000,-64.1250,0,,,
4.318000,-76.2500,0,,,
4.328000,-65.5000,0,,,
4.338000,-88.6250,0,,,
4.348000,-80.1250,0,,,
4.358000,-67.8750,0,,,
4.368000,-48.2500,0,,,
4.378000,-77.7500,0,,,
4.388000,-70.3750,0,,,
4.398000,-82.1250,0,,,
4.408000,-56.2500,0,,,
4.418000,-83.0000,0,,,
4.428000,-61.1250,0,,,
4.438000,-68.7500,0,,,
4.448000,-89.2500,0,,,
4.458000,-74.5000,0,,,
4.468000,-56.7500,0,,,
4.478000,-75.5000,0,,,
4.488000,-72.3750,0,,,
4.498000,-70.1250,0,,,
4.508000,-83.7500,0,,,
4.518000,-85.3750,0,,,
4.528000,-78.2500,0,,,
4.538000,-83.7500,0,,,
4.548000,-44.1250,0,,,
4.558000,-76.5000,0,,,
4.568000,-71.3750,0,,,
4.578000,-73.3750,0,,,
4.588000,-73.1250,0,,,
4.598000,-78.7500,0,,,
4.608000,-66.7500,0,,,
4.618000,-73.7500,0,,,
4.628000,-72.5000,0,,,
4.638000,-72.2500,0,,,
4.648000,-72.2500,0,,,
4.658000,-70.5000,0,,,
4.668000,-69.1250,0,,,
4.678000,-88.7500,0,,,
4.688000,-63.8750,0,,,
4.698000,-78.2500,0,,,
4.708000,-72.6250,0,,,
4.718000,-76.7500,0,,,
4.728000,-65.8750,0,,,
4.738000,-94.6250,0,,,
4.748000,-81.6250,0,,,
4.758000,-82.2500,0,,,
4.768000,-79.2500,0,,,
4.778000,-50.8750,0,,,
4.788000,-79.5000,0,,,
4.798000,-82.7500,0,,,
4.808000,-79.2500,0,,,
4.818000,-87.6250,0,,,
4.828000,-60.6250,0,,,
4.838000,-53.6250,0,,,
4.848000,-70.1250,0,,,
4.858000,-78.2500,0,,,
4.868000,-75.7500,0,,,
4.878000,-73.5000,0,,,
4.888000,-86.5000,0,,,
4.898000,-79.7500,0,,,
4.908000,-60.2500,0,,,
4.918000,-59.5000,0,,,
4.928000,-29.8750,0,,,
4.938000,-61.5000,0,,,
4.948000,-89.3750,0,,,
4.958000,-58.3750,0,,,
4.968000,-62.6250,0,,,
4.978000,-53.2500,0,,,
4.988000,-80.2500,0,,,
4.998000,-75.6250,0,,,
5.008000,-66.3750,0,,,
5.018000,-75.1250,0,,,
5.028000,-83.7500,0,,,
5.038000,-60.0000,0,,,
5.048000,-74.3750,0,,,
5.058000,-88.2500,0,,,
5.068000,-84.3750,0,,,
5.078000,-43.3750,0,,,
5.088000,-39.7500,0,,,
5.098000,-70.6250,0,,,
5.108000,-12.3750,0,,,
5.118000,-26.6250,0,,,
5.128000,-82.8750,0,,,
5.138000,-48.5000,0,,,
5.148000,-64.1250,0,,,
5.158000,-72.3750,0,,,
5.168000,-47.2500,0,,,
5.178000,-64.1250,0,,,
5.188000,-51.8750,0,,,
5.198000,-91.8750,0,,,
5.208000,-50.8750,0,,,
5.218000,-18.7500,0,,,
5.228000,-56.0000,0,,,
5.238000,-19.5000,0,,,
5.248000,-65.5000,0,,,
5.258000,-79.3750,0,,,
5.268000,-54.8750,0,,,
5.278000,-54.1250,0,,,
5.288000,-23.5000,0,,,
5.298000,-58.0000,0,,,
5.308000,-43.3750,0,,,
5.318000,-69.0000,0,,,
5.328000,-90.3750,0,,,
5.338000,-72.2500,0,,,
5.348000,-78.6250,0,,,
5.358000,-79.6250,0,,,
5.368000,-74.5000,0,,,
5.378000,-96.6250,0,,,
5.388000,-85.8750,0,,,
5.398000,-86.5000,0,,,
5.408000,-73.7500,0,,,
5.418000,-84.5000,0,,,
5.428000,-69.5000,0,,,
5.438000,-42.5000,0,,,
5.448000,-68.5000,0,,,
5.458000,-85.7500,0,,,
5.468000,-72.5000,0,,,
5.478000,-19.2500,0,,,
5.488000,-70.6250,0,,,
5.498000,-35.1250,0,,,
5.508000,-36.8750,0,,,
5.518000,-45.8750,0,,,
5.528000,-48.8750,0,,,
5.538000,-32.8750,0,,,
5.548000,-63.3750,0,,,
5.558000,-14.5000,0,,,
5.568000,-48.8750,0,,,
5.578000,-25.7500,0,,,
5.588000,-43.5000,0,,,
5.598000,-35.1250,0,,,
5.608000,-29.3750,0,,,
5.618000,-28.8750,3,,-0.15,
5.628000,-31.1250,3,,-0.15,
5.638000,-44.0000,3,,-0.15,
5.648000,-14.3750,3,,-0.15,
5.658000,-41.6250,3,,-0.15,
5.668000,-28.8750,3,,-0.15,
5.678000,-9.2500,3,,-0.15,
5.688000,-16.5000,3,,-0.15,
5.698000,-8.6250,3,,-0.15,
5.708000,-29.6250,3,,-0.15,
5.718000,-12.2500,3,,-0.15,
5.728000,-10.3750,3,,-0.15,
5.738000,-22.1250,3,,-0.15,
5.748000,-16.2500,3,,-0.15,
5.758000,-25.0000,3,,-0.15,
5.768000,-15.2500,3,,-0.15,
5.778000,-61.6250,3,,-0.15,
5.788000,-10.7500,3,,-0.15,
5.798000,-47.3750,3,,-0.15,
5.808000,-9.1250,3,,-0.15,
5.818000,-41.7500,3,,-0.15,
5.828000,-33.6250,3,,-0.15,
5.838000,-43.6250,3,,-0.15,
5.848000,-42.2500,3,,-0.15,
5.858000,-40.2500,3,,-0.15,
5.868000,-42.5000,3,,-0.15,
5.878000,-57.3750,3,,-0.15,
5.888000,-25.0000,3,,-0.15,
5.898000,-60.2500,3,,-0.15,
5.908000,-33.6250,3,,-0.15,
5.918000,-60.7500,3,,-0.15,
5.928000,-76.3750,3,,-0.15,
5.938000,-46.8750,3,,-0.15,
5.948000,-81.6250,3,,-0.15,
5.958000,-94.0000,3,,-0.15,
5.968000,-86.7500,3,,-0.15,
5.978000,-56.2500,3,,-0.15,
5.988000,-84.1250,3,,-0.15,
5.998000,-34.1250,3,,-0.15,
6.008000,-59.3750,3,,-0.15,
6.018000,-39.0000,3,,-0.15,
6.028000,-73.5000,3,,-0.15,
6.038000,-78.1250,3,,-0.15,
6.048000,-65.6250,3,,-0.15,
6.058000,-50.5000,3,,-0.15,
6.068000,-61.8750,3,,-0.15,
6.078000,-46.2500,3,,-0.15,
6.088000,-58.0000,3,,-0.15,
6.098000,-68.7500,3,,-0.15,
6.108000,-61.2500,3,,-0.15,
6.118000,-73.7500,3,,-0.15,
6.128000,-63.8750,3,,-0.15,
6.138000,-70.1250,3,,-0.15,
6.148000,-82.6250,3,,-0.15,
6.158000,-61.5000,3,,-0.15,
6.168000,-86.0000,3,,-0.15,
6.178000,-52.3750,3,,-0.15,
6.188000,-69.1250,3,,-0.15,
6.198000,-45.8750,3,,-0.15,
6.208000,-77.5000,3,,-0.15,
6.218000,-64.2500,3,,-0.15,
6.228000,-69.8750,3,,-0.15,
6.238000,-80.7500,3,,-0.15,
6.248000,-37.2500,3,,-0.15,
6.258000,-71.7500,3,,-0.15,
6.268000,-56.0000,3,,-0.15,
6.278000,-58.3750,3,,-0.15,
6.288000,-72.0000,3,,-0.15,
6.298000,-43.7500,3,,-0.15,
6.308000,-67.2500,3,,-0.15,
6.318000,-17.8750,3,,-0.15,
6.328000,-39.3750,3,,-0.15,
6.338000,-37.6250,3,,-0.15,
6.348000,-95.3750,3,,-0.15,
6.358000,-59.8750,3,,-0.15,
6.368000,-37.2500,3,,-0.15,
6.378000,-81.3750,3,,-0.15,
6.388000,-29.7500,3,,-0.15,
6.398000,-87.0000,3,,-0.15,
6.408000,-46.6250,3,,-0.15,
6.418000,-72.1250,3,,-0.15,
6.428000,-30.3750,3,,-0.15,
6.438000,-76.6250,3,,-0.15,
6.448000,-39.5000,3,,-0.15,
6.458000,-77.2500,3,,-0.15,
6.468000,-30.3750,3,,-0.15,
6.478000,-34.1250,3,,-0.15,
6.488000,-24.6250,3,,-0.15,
6.498000,-43.6250,3,,-0.15,
6.508000,-34.0000,3,,-0.15,
6.518000,-52.0000,3,,-0.15,
6.528000,-32.3750,3,,-0.15,
6.538000,-56.8750,3,,-0.15,
6.548000,-37.7500,3,,-0.15,
6.558000,-76.7500,3,,-0.15,
6.568000,-46.6250,3,,-0.15,
6.578000,-65.5000,3,,-0.15,
6.588000,-42.5000,3,,-0.15,
6.598000,-24.7500,3,,-0.15,
6.608000,-31.7500,3,,-0.15,
6.618000,-30.5000,3,,-0.15,
6.628000,-34.0000,3,,-0.15,
6.638000,-30.1250,3,,-0.15,
6.648000,-84.1250,3,,-0.15,
6.658000,-42.3750,3,,-0.15,
6.668000,-93.5000,3,,-0.15,
6.678000,-32.3750,3,,-0.15,
6.688000,-93.0000,3,,-0.15,
6.698000,-54.0000,3,,-0.15,
6.708000,-92.6250,3,,-0.15,
6.718000,-50.0000,3,,-0.15,
6.728000,-97.5000,3,,-0.15,
6.738000,-59.5000,3,,-0.15,
6.748000,-56.2500,3,,-0.15,
6.758000,-82.2500,3,,-0.15,
6.768000,-89.7500,3,,-0.15,
6.778000,-42.5000,3,,-0.15,
6.788000,-64.0000,3,,-0.15,
6.798000,-64.7500,3,,-0.15,
6.808000,-27.1250,3,,-0.15,
6.818000,-44.2500,3,,-0.15,
6.828000,-37.6250,3,,-0.15,
6.838000,-37.3750,3,,-0.15,
6.848000,-49.1250,3,,-0.15,
6.858000,-96.6250,3,,-0.15,
6.868000,-81.3750,3,,-0.15,
6.878000,-51.6250,3,,-0.15,
6.888000,-84.5000,3,,-0.15,
6.898000,-83.8750,3,,-0.15,
6.908000,-79.6250,3,,-0.15,
6.918000,-72.8750,3,,-0.15,
6.928000,-80.1250,3,,-0.15,
6.938000,-77.6250,3,,-0.15,
6.948000,-84.2500,3,,-0.15,
6.958000,-78.1250,3,,-0.15,
6.968000,-77.8750,3,,-0.15,
6.978000,-78.7500,3,,-0.15,
6.988000,-85.7500,3,,-0.15,
6.998000,-84.5000,3,,-0.15,
7.008000,-85.0000,3,,-0.15,
7.018000,-84.1250,3,,-0.15,
7.028000,-85.6250,3,,-0.15,
7.038000,-84.7500,3,,-0.15,
7.048000,-83.6250,3,,-0.15,
7.058000,-79.5000,3,,-0.15,
7.068000,-81.5000,3,,-0.15,
7.078000,-86.2500,3,,-0.15,
7.088000,-83.3750,3,,-0.15,
7.098000,-80.8750,3,,-0.15,
7.108000,-84.0000,3,,-0.15,
7.118000,-82.6250,3,,-0.15,
7.128000,-81.8750,3,,-0.15,
7.138000,-82.5000,3,,-0.15,
7.148000,-79.3750,3,,-0.15,
7.158000,-81.3750,3,,-0.15,
7.168000,-83.0000,3,,-0.15,
7.178000,-85.2500,3,,-0.15,
7.188000,-84.1250,3,,-0.15,
7.198000,-84.2500,3,,-0.15,
7.208000,-84.1250,3,,-0.15,
7.218000,-85.3750,3,,-0.15,
7.228000,-85.2500,3,,-0.15,
7.238000,-84.3750,3,,-0.15,
7.248000,-84.6250,3,,-0.15,
7.258000,-84.7500,3,,-0.15,
7.268000,-85.3750,3,,-0.15,
7.278000,-85.1250,3,,-0.15,
7.288000,-84.6250,3,,-0.15,
7.298000,-84.3750,3,,-0.15,
7.308000,-85.0000,3,,-0.15,
7.318000,-85.0000,3,,-0.15,
7.328000,-85.6250,3,,-0.15,
7.338000,-85.0000,3,,-0.15,
7.348000,-85.3750,3,,-0.15,
7.358000,-85.7500,3,,-0.15,
7.368000,-85.8750,3,,-0.15,
7.378000,-85.2500,3,,-0.15,
7.388000,-85.2500,3,,-0.15,
7.398000,-85.2500,3,,-0.15,
7.408000,-85.7500,3,,-0.15,
7.418000,-85.3750,3,,-0.15,
7.428000,-85.8750,3,,-0.15,
7.438000,-85.6250,3,,-0.15,
7.448000,-85.6250,3,,-0.15,
7.458000,-85.2500,3,,-0.15,
7.468000,-85.7500,3,,-0.15,
7.478000,-84.7500,3,,-0.15,
7.488000,-82.6250,3,,-0.15,
7.498000,-81.0000,3,,-0.15,
7.508000,-75.0000,3,,-0.15,
7.518000,-77.5000,3,,-0.15,
7.528000,-76.3750,3,,-0.15,
7.538000,-76.2500,3,,-0.15,
7.548000,-79.3750,3,,-0.15,
7.558000,-82.1250,3,,-0.15,
7.568000,-86.6250,3,,-0.15,
7.578000,-82.8750,3,,-0.15,
7.588000,-82.8750,3,,-0.15,
7.598000,-81.1250,3,,-0.15,
7.608000,-78.5000,3,,-0.15,
7.618000,-79.2500,3,,-0.15,
7.628000,-81.7500,3,,-0.15,
7.638000,-82.3750,3,,-0.15,
7.648000,-82.6250,3,,-0.15,
7.658000,-84.6250,3,,-0.15,
7.668000,-85.5000,3,,-0.15,
7.678000,-85.1250,3,,-0.15,
7.688000,-85.6250,3,,-0.15,
7.698000,-84.1250,3,,-0.15,
7.708000,-82.8750,3,,-0.15,
7.718000,-81.3750,3,,-0.15,
7.728000,-83.2500,3,,-0.15,
7.738000,-84.5000,3,,-0.15,
7.748000,-84.1250,3,,-0.15,
7.758000,-83.7500,3,,-0.15,
7.768000,-83.6250,3,,-0.15,
7.778000,-83.8750,3,,-0.15,
7.788000,-84.2500,3,,-0.15,
7.798000,-83.7500,3,,-0.15,
7.808000,-84.1250,3,,-0.15,
7.818000,-84.3750,3,,-0.15,
7.828000,-83.5000,3,,-0.15,
7.838000,-84.0000,3,,-0.15,
7.848000,-83.7500,3,,-0.15,
7.858000,-83.6250,3,,-0.15,
7.868000,-84.3750,3,,-0.15,
7.878000,-84.0000,3,,-0.15,
7.888000,-84.2500,3,,-0.15,
7.898000,-84.6250,3,,-0.15,
7.908000,-84.1250,3,,-0.15,
7.918000,-84.8750,3,,-0.15,
7.928000,-84.8750,3,,-0.15,
7.938000,-85.0000,3,,-0.15,
7.948000,-85.5000,3,,-0.15,
7.958000,-82.8750,3,,-0.15,
7.968000,-83.1250,3,,-0.15,
7.978000,-83.0000,3,,-0.15,
7.988000,-84.2500,3,,-0.15,
7.998000,-83.8750,3,,-0.15,
8.008000,-85.0000,3,,-0.15,
8.018000,-84.5000,3,,-0.15,
8.028000,-84.3750,3,,-0.15,
8.038000,-82.8750,3,,-0.15,
8.048000,-83.8750,3,,-0.15,
8.058000,-82.6250,3,,-0.15,
8.068000,-83.2500,3,,-0.15,
8.078000,-83.1250,3,,-0.15,
8.088000,-82.8750,3,,-0.15,
8.098000,-82.2500,3,,-0.15,
8.108000,-81.7500,3,,-0.15,
8.118000,-83.0000,3,,-0.15,
8.128000,-83.3750,3,,-0.15,
8.138000,-83.0000,3,,-0.15,
8.148000,-82.8750,3,,-0.15,
8.158000,-82.1250,3,,-0.15,
8.168000,-82.7500,3,,-0.15,
8.178000,-83.5000,3,,-0.15,
8.188000,-82.5000,3,,-0.15,
8.198000,-83.0000,3,,-0.15,
8.208000,-83.2500,3,,-0.15,
8.218000,-83.7500,3,,-0.15,
8.228000,-82.5000,3,,-0.15,
8.238000,-83.1250,3,,-0.15,
8.248000,-82.5000,3,,-0.15,
8.258000,-83.3750,3,,-0.15,
8.268000,-83.5000,3,,-0.15,
8.278000,-82.6250,3,,-0.15,
8.288000,-83.0000,3,,-0.15,
8.298000,-82.6250,3,,-0.15,
8.308000,-83.2500,3,,-0.15,
8.318000,-82.8750,3,,-0.15,
8.328000,-83.5000,3,,-0.15,
8.338000,-83.0000,3,,-0.15,
8.348000,-83.2500,3,,-0.15,
8.358000,-83.5000,3,,-0.15,
8.368000,-82.7500,3,,-0.15,
8.378000,-83.2500,3,,-0.15,
8.388000,-83.5000,3,,-0.15,
8.398000,-84.5000,3,,-0.15,
8.408000,-84.1250,3,,-0.15,
8.418000,-84.0000,3,,-0.15,
8.428000,-83.5000,3,,-0.15,
8.438000,-83.2500,3,,-0.15,
8.448000,-83.1250,3,,-0.15,
8.458000,-83.5000,3,,-0.15,
8.468000,-84.5000,3,,-0.15,
8.478000,-83.6250,3,,-0.15,
8.488000,-84.3750,3,,-0.15,
8.498000,-84.5000,3,,-0.15,
8.508000,-84.8750,3,,-0.15,
8.518000,-83.5000,3,,-0.15,
8.528000,-83.1250,3,,-0.15,
8.538000,-82.8750,3,,-0.15,
8.548000,-83.8750,3,,-0.15,
8.558000,-83.2500,3,,-0.15,
8.568000,-83.5000,3,,-0.15,
8.578000,-83.5000,3,,-0.15,
8.588000,-83.6250,3,,-0.15,
8.598000,-84.0000,3,,-0.15,
8.608000,-84.0000,3,,-0.15,
8.618000,-83.8750,3,,-0.15,
8.628000,-83.6250,3,,-0.15,
8.638000,-84.0000,3,,-0.15,
8.648000,-83.6250,3,,-0.15,
8.658000,-83.8750,3,,-0.15,
8.668000,-83.1250,3,,-0.15,
8.678000,-83.8750,3,,-0.15,
8.688000,-84.6250,3,,-0.15,
8.698000,-85.0000,3,,-0.15,
8.708000,-84.0000,3,,-0.15,
8.718000,-84.1250,3,,-0.15,
8.728000,-84.5000,3,,-0.15,
8.738000,-84.2500,3,,-0.15,
8.748000,-85.1250,3,,-0.15,
8.758000,-84.6250,3,,-0.15,
8.768000,-84.7500,3,,-0.15,
8.778000,-84.1250,3,,-0.15,
8.788000,-84.8750,3,,-0.15,
8.798000,-84.7500,3,,-0.15,
8.808000,-84.6250,3,,-0.15,
8.818000,-84.5000,3,,-0.15,
8.828000,-85.6250,3,,-0.15,
8.838000,-84.8750,3,,-0.15,
8.848000,-85.1250,3,,-0.15,
8.858000,-84.7500,3,,-0.15,
8.868000,-84.6250,3,,-0.15,
8.878000,-85.2500,3,,-0.15,
8.888000,-85.6250,3,,-0.15,
8.898000,-84.8750,3,,-0.15,
8.908000,-85.3750,3,,-0.15,
8.918000,-85.2500,3,,-0.15,
8.928000,-85.1250,3,,-0.15,
8.938000,-85.2500,3,,-0.15,
8.948000,-85.2500,3,,-0.15,
8.958000,-85.5000,3,,-0.15,
8.968000,-85.8750,5,,-0.19,
8.978000,-85.1250,5,,-0.19,
8.988000,-85.6250,5,,-0.19,
8.998000,-84.7500,5,,-0.19,
9.008000,-85.3750,5,,-0.19,
9.018000,-85.1250,5,,-0.19,
9.028000,-86.0000,5,,-0.19,
9.038000,-85.0000,5,,-0.19,
9.048000,-86.0000,5,,-0.19,
9.058000,-85.0000,5,,-0.19,
9.068000,-85.5000,5,,-0.19,
9.078000,-85.1250,5,,-0.19,
9.088000,-85.5000,5,,-0.19,
9.098000,-85.3750,5,,-0.19,
9.108000,-85.6250,5,,-0.19,
9.118000,-85.5000,5,,-0.19,
9.128000,-87.1250,5,,-0.19,
9.138000,-85.3750,5,,-0.19,
9.148000,-86.7500,5,,-0.19,
9.158000,-85.2500,5,,-0.19,
9.168000,-85.3750,5,,-0.19,
9.178000,-84.5000,5,,-0.19,
9.188000,-85.5000,5,,-0.19,
9.198000,-83.8750,5,,-0.19,
9.208000,-84.8750,5,,-0.19,
9.218000,-85.6250,5,,-0.19,
9.228000,-85.1250,5,,-0.19,
9.238000,-85.0000,5,,-0.19,
9.248000,-85.3750,5,,-0.19,
9.258000,-85.1250,5,,-0.19,
9.268000,-85.6250,5,,-0.19,
9.278000,-85.7500,5,,-0.19,
9.288000,-86.1250,5,,-0.19,
9.298000,-85.7500,5,,-0.19,
9.308000,-86.1250,5,,-0.19,
9.318000,-86.0000,5,,-0.19,
9.328000,-85.8750,5,,-0.19,
9.338000,-85.5000,5,,-0.19,
9.348000,-85.7500,5,,-0.19,
9.358000,-85.7500,5,,-0.19,
9.368000,-86.0000,5,,-0.19,
9.378000,-85.6250,5,,-0.19,
9.388000,-85.3750,5,,-0.19,
9.398000,-85.6250,5,,-0.19,
9.408000,-86.2500,5,,-0.19,
9.418000,-86.3750,5,,-0.19,
9.428000,-85.8750,5,,-0.19,
9.438000,-85.6250,5,,-0.19,
9.448000,-86.3750,5,,-0.19,
9.458000,-86.0000,5,,-0.19,
9.468000,-86.1250,5,,-0.19,
9.478000,-86.0000,5,,-0.19,
9.488000,-86.0000,5,,-0.19,
9.498000,-86.3750,5,,-0.19,
9.508000,-85.8750,5,,-0.19,
9.518000,-85.8750,5,,-0.19,
9.528000,-86.5000,5,,-0.19,
9.538000,-86.7500,5,,-0.19,
9.548000,-86.0000,5,,-0.19,
9.558000,-86.7500,5,,-0.19,
9.568000,-86.3750,5,,-0.19,
9.578000,-85.5000,5,,-0.19,
9.588000,-86.2500,5,,-0.19,
9.598000,-86.0000,5,,-0.19,
9.608000,-85.8750,5,,-0.19,
9.618000,-86.5000,5,,-0.19,
9.628000,-86.2500,5,,-0.19,
9.638000,-86.6250,5,,-0.19,
9.648000,-86.2500,5,,-0.19,
9.658000,-86.3750,5,,-0.19,
9.668000,-86.1250,5,,-0.19,
9.678000,-87.2500,5,,-0.19,
9.688000,-86.7500,5,,-0.19,
9.698000,-87.7500,5,,-0.19,
9.708000,-85.7500,5,,-0.19,
9.718000,-87.7500,5,,-0.19,
9.728000,-86.0000,5,,-0.19,
9.738000,-87.7500,5,,-0.19,
9.748000,-86.5000,5,,-0.19,
9.758000,-87.7500,5,,-0.19,
9.768000,-86.1250,5,,-0.19,
9.778000,-88.0000,5,,-0.19,
9.788000,-85.7500,5,,-0.19,
9.798000,-88.2500,5,,-0.19,
9.808000,-87.2500,5,,-0.19,
9.818000,-88.1250,5,,-0.19,
9.828000,-87.1250,5,,-0.19,
9.838000,-89.1250,5,,-0.19,
9.848000,-86.5000,5,,-0.19,
9.858000,-88.8750,5,,-0.19,
9.868000,-86.8750,5,,-0.19,
9.878000,-88.8750,5,,-0.19,
9.888000,-86.8750,5,,-0.19,
9.898000,-88.7500,5,,-0.19,
9.908000,-87.2500,5,,-0.19,
9.918000,-89.1250,5,,-0.19,
9.928000,-87.1250,5,,-0.19,
9.938000,-90.7500,5,,-0.19,
9.948000,-88.7500,5,,-0.19,
9.958000,-89.5000,5,,-0.19,
9.968000,-87.5000,5,,-0.19,
9.978000,-89.8750,5,,-0.19,
9.988000,-88.8750,5,,-0.19,
9.998000,-86.1250,5,,-0.19,
10.008000,-89.0000,5,,-0.19,
10.018000,-91.5000,5,,-0.19,
10.028000,-86.0000,5,,-0.19,
10.038000,-89.8750,5,,-0.19,
10.048000,-90.0000,5,,-0.19,
10.058000,-84.8750,5,,-0.19,
10.068000,-86.8750,5,,-0.19,
10.078000,-72.3750,5,,-0.19,
10.088000,-91.0000,5,,-0.19,
10.098000,-87.1250,5,,-0.19,
10.108000,-89.6250,5,,-0.19,
10.118000,-89.6250,5,,-0.19,
10.128000,-81.6250,5,,-0.19,
10.138000,-91.2500,5,,-0.19,
10.148000,-83.8750,5,,-0.19,
10.158000,-92.6250,5,,-0.19,
10.168000,-84.7500,5,,-0.19,
10.178000,-93.3750,5,,-0.19,
10.188000,-78.2500,5,,-0.19,
10.198000,-91.3750,5,,-0.19,
10.208000,-90.5000,5,,-0.19,
10.218000,-91.0000,5,,-0.19,
10.228000,-86.5000,5,,-0.19,
10.238000,-91.0000,5,,-0.19,
10.248000,-88.2500,5,,-0.19,
10.258000,-91.6250,5,,-0.19,
10.268000,-86.6250,5,,-0.19,
10.278000,-91.8750,5,,-0.19,
10.288000,-86.2500,5,,-0.19,
10.298000,-91.6250,5,,-0.19,
10.308000,-92.0000,5,,-0.19,
10.318000,-91.1250,5,,-0.19,
10.328000,-87.7500,5,,-0.19,
10.338000,-90.7500,5,,-0.19,
10.348000,-87.1250,5,,-0.19,
10.358000,-90.6250,5,,-0.19,
10.368000,-89.2500,5,,-0.19,
10.378000,-90.7500,5,,-0.19,
10.388000,-89.2500,5,,-0.19,
10.398000,-90.7500,5,,-0.19,
10.408000,-89.0000,5,,-0.19,
10.418000,-91.3750,5,,-0.19,
10.428000,-88.8750,5,,-0.19,
10.438000,-90.8750,5,,-0.19,
10.448000,-88.2500,5,,-0.19,
10.458000,-90.2500,5,,-0.19,
10.468000,-89.6250,5,,-0.19,
10.478000,-89.3750,5,,-0.19,
10.488000,-89.5000,5,,-0.19,
10.498000,-88.0000,5,,-0.19,
10.508000,-89.7500,5,,-0.19,
10.518000,-86.6250,5,,-0.19,
10.528000,-89.2500,5,,-0.19,
10.538000,-89.1250,5,,-0.19,
10.548000,-89.2500,5,,-0.19,
10.558000,-88.7500,5,,-0.19,
10.568000,-88.8750,5,,-0.19,
10.578000,-85.6250,5,,-0.19,
10.588000,-89.0000,5,,-0.19,
10.598000,-83.7500,5,,-0.19,
10.608000,-88.3750,5,,-0.19,
10.618000,-81.8750,5,,-0.19,
10.628000,-87.6250,5,,-0.19,
10.638000,-82.7500,5,,-0.19,
10.648000,-87.0000,5,,-0.19,
10.658000,-83.5000,5,,-0.19,
10.668000,-72.8750,5,,-0.19,
10.678000,-87.2500,5,,-0.19,
10.688000,-86.3750,5,,-0.19,
10.698000,-80.2500,5,,-0.19,
10.708000,-78.5000,5,,-0.19,
10.718000,-42.5000,5,,-0.19,
10.728000,-95.6250,5,,-0.19,
10.738000,-95.2500,5,,-0.19,
10.748000,-94.1250,5,,-0.19,
10.758000,-92.7500,5,,-0.19,
10.768000,-93.3750,5,,-0.19,
10.778000,-92.1250,5,,-0.19,
10.788000,-86.5000,5,,-0.19,
10.798000,-81.3750,5,,-0.19,
10.808000,-77.1250,5,,-0.19,
10.818000,-72.8750,5,,-0.19,
10.828000,-72.0000,5,,-0.19,
10.838000,-68.8750,5,,-0.19,
10.848000,-67.2500,5,,-0.19,
10.858000,-65.5000,5,,-0.19,
10.868000,-64.5000,5,,-0.19,
10.878000,-54.5000,5,,-0.19,
10.888000,-63.0000,5,,-0.19,
10.898000,-72.7500,5,,-0.19,
10.908000,-44.5000,5,,-0.19,
10.918000,-27.0000,5,,-0.19,
10.928000,-11.2500,5,,-0.19,
10.938000,18.0000,5,,-0.19,
10.948000,-18.5000,5,,-0.19,
10.958000,-98.8750,5,,-0.19,
10.968000,-103.7500,5,,-0.19,
10.978000,-103.5000,5,,-0.19,
10.988000,-103.0000,5,,-0.19,
10.998000,-100.2500,5,,-0.19,
11.008000,-100.3750,5,,-0.19,
11.018000,-97.0000,5,,-0.19,
11.028000,-96.8750,5,,-0.19,
11.038000,-96.0000,5,,-0.19,
11.048000,-99.6250,5,,-0.19,
11.058000,-97.6250,5,,-0.19,
11.068000,-98.5000,5,,-0.19,
11.078000,-99.0000,5,,-0.19,
11.088000,-98.0000,5,,-0.19,
11.098000,-99.0000,5,,-0.19,
11.108000,-99.0000,5,,-0.19,
11.118000,-98.8750,5,,-0.19,
11.128000,-97.8750,5,,-0.19,
11.138000,-95.6250,5,,-0.19,
11.148000,-95.8750,5,,-0.19,
11.158000,-96.6250,5,,-0.19,
11.168000,-93.0000,5,,-0.19,
11.178000,-96.5000,5,,-0.19,
11.188000,-94.2500,5,,-0.19,
11.198000,-92.3750,5,,-0.19,
11.208000,-93.2500,5,,-0.19,
11.218000,-93.3750,5,,-0.19,
11.228000,-88.7500,5,,-0.19,
11.238000,-90.8750,5,,-0.19,
11.248000,-93.7500,5,,-0.19,
11.258000,-94.1250,5,,-0.19,
11.268000,-92.3750,5,,-0.19,
11.278000,-90.2500,5,,-0.19,
11.288000,-95.2500,5,,-0.19,
11.298000,-94.2500,5,,-0.19,
11.308000,-96.3750,5,,-0.19,
11.318000,-96.7500,5,,-0.19,
11.328000,-88.6250,5,,-0.19,
11.338000,-88.2500,5,,-0.19,
11.348000,-87.2500,5,,-0.19,
11.358000,-87.2500,5,,-0.19,
11.368000,-96.5000,5,,-0.19,
11.378000,-91.6250,5,,-0.19,
11.388000,-101.8750,5,,-0.19,
11.398000,-87.0000,5,,-0.19,
11.408000,-90.2500,5,,-0.19,
11.418000,-90.3750,5,,-0.19,
11.428000,-90.3750,5,,-0.19,
11.438000,-90.7500,5,,-0.19,
11.448000,-93.5000,5,,-0.19,
11.458000,-91.6250,5,,-0.19,
11.468000,-86.0000,5,,-0.19,
11.478000,-89.3750,5,,-0.19,
11.488000,-85.3750,5,,-0.19,
11.498000,-91.8750,5,,-0.19,
11.508000,-88.7500,5,,-0.19,
11.518000,-88.6250,5,,-0.19,
11.528000,-100.3750,5,,-0.19,
11.538000,-93.2500,5,,-0.19,
11.548000,-85.1250,5,,-0.19,
11.558000,-98.8750,5,,-0.19,
11.568000,-96.1250,5,,-0.19,
11.578000,-84.8750,5,,-0.19,
11.588000,-86.1250,5,,-0.19,
11.598000,-86.7500,5,,-0.19,
11.608000,-92.8750,5,,-0.19,
11.618000,-97.7500,5,,-0.19,
11.628000,-93.0000,5,,-0.19,
11.638000,-91.3750,5,,-0.19,
11.648000,-87.8750,5,,-0.19,
11.658000,-83.8750,5,,-0.19,
11.668000,-88.7500,5,,-0.19,
11.678000,-93.7500,5,,-0.19,
11.688000,-91.3750,5,,-0.19,
11.698000,-88.2500,5,,-0.19,
11.708000,-83.1250,5,,-0.19,
11.718000,-85.5000,5,,-0.19,
11.728000,-85.5000,5,,-0.19,
11.738000,-90.0000,5,,-0.19,
11.748000,-91.3750,5,,-0.19,
11.758000,-83.8750,5,,-0.19,
11.768000,-87.3750,5,,-0.19,
11.778000,-86.7500,5,,-0.19,
11.788000,-83.5000,5,,-0.19,
11.798000,-95.2500,5,,-0.19,
11.808000,-89.5000,5,,-0.19,
11.818000,-84.3750,5,,-0.19,
11.828000,-94.6250,5,,-0.19,
11.838000,-89.8750,5,,-0.19,
11.848000,-90.5000,5,,-0.19,
11.858000,-88.7500,5,,-0.19,
11.868000,-86.6250,5,,-0.19,
11.878000,-92.0000,5,,-0.19,
11.888000,-88.1250,5,,-0.19,
11.898000,-90.2500,5,,-0.19,
11.908000,-98.2500,5,,-0.19,
11.918000,-93.0000,5,,-0.19,
11.928000,-94.7500,5,,-0.19,
11.938000,-95.8750,5,,-0.19,
11.948000,-86.6250,5,,-0.19,
11.958000,-92.5000,5,,-0.19,
11.968000,-92.5000,5,,-0.19,
11.978000,-82.8750,5,,-0.19,
11.988000,-90.3750,5,,-0.19,
11.998000,-83.3750,5,,-0.19,
12.008000,-86.2500,5,,-0.19,
12.018000,-84.0000,5,,-0.19,
12.028000,-82.8750,5,,-0.19,
12.038000,-86.6250,5,,-0.19,
12.048000,-99.1250,5,,-0.19,
12.058000,-92.1250,5,,-0.19,
12.068000,-97.2500,5,,-0.19,
12.078000,-92.0000,5,,-0.19,
12.088000,-88.7500,5,,-0.19,
12.098000,-85.7500,5,,-0.19,
12.108000,-86.8750,5,,-0.19,
12.118000,-97.7500,5,,-0.19,
12.128000,-90.6250,5,,-0.19,
12.138000,-79.1250,5,,-0.19,
12.148000,-83.8750,5,,-0.19,
12.158000,-89.7500,5,,-0.19,
12.168000,-88.8750,5,,-0.19,
12.178000,-81.5000,5,,-0.19,
12.188000,-88.1250,5,,-0.19,
12.198000,-82.0000,5,,-0.19,
12.208000,-87.8750,5,,-0.19,
12.218000,-89.6250,5,,-0.19,
12.228000,-85.7500,5,,-0.19,
12.238000,-86.1250,5,,-0.19,
12.248000,-82.3750,5,,-0.19,
12.258000,-83.3750,5,,-0.19,
12.268000,-92.0000,5,,-0.19,
12.278000,-88.3750,5,,-0.19,
12.288000,-88.1250,5,,-0.19,
12.298000,-83.7500,5,,-0.19,
12.308000,-87.8750,5,,-0.19,
12.318000,-89.2500,5,,-0.19,
12.328000,-90.8750,5,,-0.19,
12.338000,-89.6250,5,,-0.19,
12.348000,-90.7500,5,,-0.19,
12.358000,-85.1250,5,,-0.19,
12.368000,-95.1250,5,,-0.19,
12.378000,-86.0000,5,,-0.19,
12.388000,-88.8750,5,,-0.19,
12.398000,-84.3750,5,,-0.19,
12.408000,-89.5000,5,,-0.19,
12.418000,-93.6250,5,,-0.19,
12.428000,-89.5000,5,,-0.19,
12.438000,-87.0000,5,,-0.19,
12.448000,-88.0000,5,,-0.19,
12.458000,-97.5000,5,,-0.19,
12.468000,-91.1250,5,,-0.19,
12.478000,-83.2500,5,,-0.19,
12.488000,-82.8750,5,,-0.19,
12.498000,-92.0000,5,,-0.19,
12.508000,-83.1250,5,,-0.19,
12.518000,-88.3750,5,,-0.19,
12.528000,-85.7500,5,,-0.19,
12.538000,-85.7500,5,,-0.19,
12.548000,-88.0000,5,,-0.19,
12.558000,-90.6250,5,,-0.19,
12.568000,-85.3750,5,,-0.19,
12.578000,-86.5000,5,,-0.19,
12.588000,-94.3750,5,,-0.19,
12.598000,-91.2500,5,,-0.19,
12.608000,-91.3750,5,,-0.19,
12.618000,-79.2500,5,,-0.19,
12.628000,-86.0000,5,,-0.19,
12.638000,-89.3750,5,,-0.19,
12.648000,-87.2500,5,,-0.19,
12.658000,-88.6250,5,,-0.19,
12.668000,-88.6250,5,,-0.19,
12.678000,-89.2500,5,,-0.19,
12.688000,-81.8750,5,,-0.19,
12.698000,-87.3750,5,,-0.19,
12.708000,-96.5000,5,,-0.19,
12.718000,-83.6250,5,,-0.19,
12.728000,-90.0000,5,,-0.19,
12.738000,-86.3750,5,,-0.19,
12.748000,-86.0000,5,,-0.19,
12.758000,-85.2500,5,,-0.19,
12.768000,-87.5000,5,,-0.19,
12.778000,-90.6250,5,,-0.19,
12.788000,-83.1250,5,,-0.19,
12.798000,-81.6250,5,,-0.19,
12.808000,-87.3750,5,,-0.19,
12.818000,-95.5000,5,,-0.19,
12.828000,-41.5000,5,,-0.19,
12.838000,-67.0000,5,,-0.19,
12.848000,-101.1250,5,,-0.19,
12.858000,-74.5000,5,,-0.19,
12.868000,-75.0000,5,,-0.19,
12.878000,-78.5000,5,,-0.19,
12.888000,-85.6250,5,,-0.19,
12.898000,-80.1250,5,,-0.19,
12.908000,-84.8750,5,,-0.19,
12.918000,-83.5000,5,,-0.19,
12.928000,-86.3750,5,,-0.19,
12.938000,-84.0000,5,,-0.19,
12.948000,-86.3750,5,,-0.19,
12.958000,-85.0000,5,,-0.19,
12.968000,-86.3750,5,,-0.19,
12.978000,-85.3750,5,,-0.19,
12.988000,-87.3750,5,,-0.19,
12.998000,-86.3750,5,,-0.19,
13.008000,-87.7500,5,,-0.19,
13.018000,-86.8750,5,,-0.19,
13.028000,-87.2500,5,,-0.19,
13.038000,-87.5000,5,,-0.19,
13.048000,-87.5000,5,,-0.19,
13.058000,-87.0000,5,,-0.19,
13.068000,-87.2500,5,,-0.19,
13.078000,-87.2500,7,,-8.30,11.68
13.088000,-87.5000,7,,-8.30,11.68
13.098000,-87.3750,7,,-8.30,11.68
13.108000,-87.8750,7,,-8.30,11.68
13.118000,-87.5000,7,,-8.30,11.68
13.128000,-87.8750,7,,-8.30,11.68
13.138000,-87.0000,7,,-8.30,11.68
13.148000,-87.8750,7,,-8.30,11.68
13.158000,-86.8750,7,,-8.30,11.68
13.168000,-87.1250,7,,-8.30,11.68
13.178000,-87.0000,7,,-8.30,11.68
13.188000,-86.2500,7,,-8.30,11.68
13.198000,-87.5000,7,,-8.30,11.68
13.208000,-87.6250,7,,-8.30,11.68
13.218000,-88.0000,7,,-8.30,11.68
13.228000,-88.1250,7,,-8.30,11.68
13.238000,-88.6250,7,,-8.30,11.68
13.248000,-88.0000,7,,-8.30,11.68
13.258000,-89.2500,7,,-8.30,11.68
13.268000,-87.5000,7,,-8.30,11.68
13.278000,-89.0000,7,,-8.30,11.68
13.288000,-88.6250,7,,-8.30,11.68
13.298000,-89.0000,7,,-8.30,11.68
13.308000,-87.8750,7,,-8.30,11.68
13.318000,-93.6250,7,,-8.30,11.68
13.328000,-88.7500,7,,-8.30,11.68
13.338000,-94.5000,7,,-8.30,11.68
13.348000,-88.6250,7,,-8.30,11.68
13.358000,-81.3750,7,,-8.30,11.68
13.368000,-87.6250,7,,-8.30,11.68
13.378000,-86.6250,7,,-8.30,11.68
13.388000,-87.7500,7,,-8.30,11.68
13.398000,-90.5000,7,,-8.30,11.68
13.408000,-88.0000,7,,-8.30,11.68
13.418000,-99.2500,7,,-8.30,11.68
13.428000,-88.5000,7,,-8.30,11.68
13.438000,-88.6250,7,,-8.30,11.68
13.448000,-87.8750,7,,-8.30,11.68
13.458000,-95.1250,7,,-8.30,11.68
13.468000,-89.1250,7,,-8.30,11.68
13.478000,-96.6250,7,,-8.30,11.68
13.488000,-91.5000,7,,-8.30,11.68
13.498000,-92.6250,7,,-8.30,11.68
13.508000,-88.7500,7,,-8.30,11.68
13.518000,-84.2500,7,,-8.30,11.68
13.528000,-92.1250,7,,-8.30,11.68
13.538000,-73.5000,7,,-8.30,11.68
13.548000,-90.6250,7,,-8.30,11.68
13.558000,-63.2500,7,,-8.30,11.68
13.568000,-96.8750,7,,-8.30,11.68
13.578000,-53.3750,7,,-8.30,11.68
13.588000,-95.0000,7,,-8.30,11.68
13.598000,-44.0000,7,,-8.30,11.68
13.608000,-91.6250,7,,-8.30,11.68
13.618000,-34.1250,7,,-8.30,11.68
13.628000,-94.6250,7,,-8.30,11.68
13.638000,-2.0000,7,,-8.30,11.68
13.648000,-99.7500,7,,-8.30,11.68
13.658000,88.5000,7,,-8.30,11.68
13.668000,-100.6250,7,,-8.30,11.68
13.678000,127.0000,7,,-8.30,11.68
13.688000,-87.0000,7,,-8.30,11.68
13.698000,202.6250,7,,-8.30,11.68
13.708000,-77.6250,7,,-8.30,11.68
13.718000,225.6250,7,,-8.30,11.68
13.728000,-87.3750,7,,-8.30,11.68
13.738000,155.6250,7,,-8.30,11.68
13.748000,-84.2500,7,,-8.30,11.68
13.758000,157.8750,7,,-8.30,11.68
13.768000,-79.5000,7,,-8.30,11.68
13.778000,237.2500,7,,-8.30,11.68
13.788000,-62.1250,7,,-8.30,11.68
13.798000,276.1250,7,,-8.30,11.68
13.808000,-62.1250,7,,-8.30,11.68
13.818000,383.5000,7,,-8.30,11.68
13.828000,29.0000,7,,-8.30,11.68
13.838000,576.5000,7,,-8.30,11.68
13.848000,395.8750,7,,-8.30,11.68
13.858000,918.6250,7,,-8.30,11.68
13.868000,992.3750,7,,-8.30,11.68
13.878000,1028.1250,7,,-8.30,11.68
13.888000,1034.0000,7,,-8.30,11.68
13.898000,1036.7500,7,,-8.30,11.68
13.908000,1024.3750,7,,-8.30,11.68
13.918000,1025.6250,7,,-8.30,11.68
13.928000,1027.2500,7,,-8.30,11.68
13.938000,1022.3750,7,,-8.30,11.68
13.948000,-1398.8750,7,,-8.30,11.68
13.958000,-1400.3750,7,,-8.30,11.68
13.968000,-1400.5000,7,,-8.30,11.68
13.978000,-1387.3750,7,,-8.30,11.68
13.988000,-1367.3750,7,,-8.30,11.68
13.998000,-1345.7500,7,,-8.30,11.68
14.008000,-1327.2500,7,,-8.30,11.68
14.018000,-1310.0000,7,,-8.30,11.68
14.028000,-1291.3750,7,,-8.30,11.68
14.038000,-1274.6250,7,,-8.30,11.68
14.048000,-1254.5000,7,,-8.30,11.68
14.058000,-1240.0000,7,,-8.30,11.68
14.068000,-1225.7500,7,,-8.30,11.68
14.078000,-1208.6250,7,,-8.30,11.68
14.088000,-1193.5000,7,,-8.30,11.68
14.098000,-1176.5000,7,,-8.30,11.68
14.108000,-1160.8750,7,,-8.30,11.68
14.118000,-1147.6250,7,,-8.30,11.68
14.128000,-1132.6250,7,,-8.30,11.68
14.138000,-1118.7500,7,,-8.30,11.68
14.148000,-1103.3750,7,,-8.30,11.68
14.158000,-1089.7500,7,,-8.30,11.68
14.168000,-1078.0000,7,,-8.30,11.68
14.178000,-1063.8750,7,,-8.30,11.68
14.188000,-1051.8750,7,,-8.30,11.68
14.198000,-1040.3750,7,,-8.30,11.68
14.208000,-1025.8750,7,,-8.30,11.68
14.218000,-1013.3750,7,,-8.30,11.68
14.228000,-997.0000,7,,-8.30,11.68
14.238000,-985.0000,7,,-8.30,11.68
14.248000,-975.2500,7,,-8.30,11.68
14.258000,-961.0000,7,,-8.30,11.68
14.268000,-951.7500,7,,-8.30,11.68
14.278000,-936.7500,7,,-8.30,11.68
14.288000,-926.3750,7,,-8.30,11.68
14.298000,-914.8750,7,,-8.30,11.68
14.308000,-904.3750,7,,-8.30,11.68
14.318000,-893.3750,7,,-8.30,11.68
14.328000,-882.1250,7,,-8.30,11.68
14.338000,-872.3750,7,,-8.30,11.68
14.348000,-860.0000,7,,-8.30,11.68
14.358000,-850.8750,7,,-8.30,11.68
14.368000,-839.7500,7,,-8.30,11.68
14.378000,-827.7500,7,,-8.30,11.68
14.388000,-819.6250,7,,-8.30,11.68
14.398000,-808.8750,7,,-8.30,11.68
14.408000,-800.6250,7,,-8.30,11.68
14.418000,-788.7500,7,,-8.30,11.68
14.428000,-779.7500,7,,-8.30,11.68
14.438000,-770.1250,7,,-8.30,11.68
14.448000,-760.3750,7,,-8.30,11.68
14.458000,-751.8750,7,,-8.30,11.68
14.468000,-742.5000,7,,-8.30,11.68
14.478000,-732.0000,7,,-8.30,11.68
14.488000,-725.2500,7,,-8.30,11.68
14.498000,-715.5000,7,,-8.30,11.68
14.508000,-705.7500,7,,-8.30,11.68
14.518000,-699.6250,7,,-8.30,11.68
14.528000,-689.7500,7,,-8.30,11.68
14.538000,-681.5000,7,,-8.30,11.68
14.548000,-674.1250,7,,-8.30,11.68
14.558000,-667.2500,7,,-8.30,11.68
14.568000,-654.2500,7,,-8.30,11.68
14.578000,-696.3750,7,,-8.30,11.68
14.588000,-634.3750,7,,-8.30,11.68
14.598000,-627.3750,7,,-8.30,11.68
14.608000,-623.3750,7,,-8.30,11.68
14.618000,-616.6250,7,,-8.30,11.68
14.628000,-607.7500,7,,-8.30,11.68
14.638000,-600.6250,7,,-8.30,11.68
14.648000,-592.6250,7,,-8.30,11.68
14.658000,-585.5000,7,,-8.30,11.68
14.668000,-579.7500,7,,-8.30,11.68
14.678000,-570.6250,7,,-8.30,11.68
14.688000,-565.8750,7,,-8.30,11.68
14.698000,-558.0000,7,,-8.30,11.68
14.708000,-550.7500,7,,-8.30,11.68
14.718000,-544.5000,7,,-8.30,11.68
14.728000,-536.8750,7,,-8.30,11.68
14.738000,-531.2500,7,,-8.30,11.68
14.748000,-524.3750,7,,-8.30,11.68
14.758000,-518.2500,7,,-8.30,11.68
14.768000,-511.1250,7,,-8.30,11.68
14.778000,-504.5000,7,,-8.30,11.68
14.788000,-494.1250,7,,-8.30,11.68
14.798000,-473.5000,7,,-8.30,11.68
14.808000,-452.1250,7,,-8.30,11.68
14.818000,-434.7500,7,,-8.30,11.68
14.828000,-379.6250,7,,-8.30,11.68
14.838000,-369.0000,7,,-8.30,11.68
14.848000,-363.5000,7,,-8.30,11.68
14.858000,-355.3750,7,,-8.30,11.68
14.868000,-336.5000,7,,-8.30,11.68
14.878000,-318.8750,7,,-8.30,11.68
14.888000,-327.3750,7,,-8.30,11.68
14.898000,-328.7500,7,,-8.30,11.68
14.908000,-325.7500,7,,-8.30,11.68
14.918000,-321.8750,7,,-8.30,11.68
14.928000,-314.3750,7,,-8.30,11.68
14.938000,-297.8750,7,,-8.30,11.68
14.948000,-283.7500,7,,-8.30,11.68
14.958000,-268.6250,7,,-8.30,11.68
14.968000,-247.1250,7,,-8.30,11.68
14.978000,-232.3750,7,,-8.30,11.68
14.988000,-223.0000,7,,-8.30,11.68
14.998000,-187.3750,7,,-8.30,11.68
15.008000,-178.3750,7,,-8.30,11.68
15.018000,-174.2500,7,,-8.30,11.68
15.028000,-166.3750,7,,-8.30,11.68
15.038000,-160.7500,7,,-8.30,11.68
15.048000,-159.0000,7,,-8.30,11.68
15.058000,-151.6250,7,,-8.30,11.68
15.068000,-151.6250,7,,-8.30,11.68
15.078000,-150.3750,7,,-8.30,11.68
15.088000,-148.2500,7,,-8.30,11.68
15.098000,-145.8750,7,,-8.30,11.68
15.108000,-144.3750,7,,-8.30,11.68
15.118000,-142.1250,7,,-8.30,11.68
15.128000,-140.1250,7,,-8.30,11.68
15.138000,-138.6250,7,,-8.30,11.68
15.148000,-130.7500,7,,-8.30,11.68
15.158000,-125.0000,7,,-8.30,11.68
15.168000,-117.8750,7,,-8.30,11.68
15.178000,-107.6250,7,,-8.30,11.68
15.188000,-106.6250,7,,-8.30,11.68
15.198000,-103.2500,7,,-8.30,11.68
15.208000,-101.7500,7,,-8.30,11.68
15.218000,-97.8750,7,,-8.30,11.68
15.228000,-83.7500,7,,-8.30,11.68
15.238000,-80.2500,7,,-8.30,11.68
15.248000,-2.6250,7,,-8.30,11.68
15.258000,-32.2500,7,,-8.30,11.68
15.268000,-67.1250,7,,-8.30,11.68
15.278000,-56.7500,7,,-8.30,11.68
15.288000,-61.5000,7,,-8.30,11.68
15.298000,-66.0000,7,,-8.30,11.68
15.308000,-65.7500,7,,-8.30,11.68
15.318000,-64.5000,7,,-8.30,11.68
15.328000,-60.5000,7,,-8.30,11.68
15.338000,-61.1250,7,,-8.30,11.68
15.348000,-68.7500,7,,-8.30,11.68
15.358000,-62.7500,7,,-8.30,11.68
15.368000,-43.8750,7,,-8.30,11.68
15.378000,-51.2500,7,,-8.30,11.68
15.388000,-50.6250,7,,-8.30,11.68
15.398000,-55.8750,7,,-8.30,11.68
15.408000,-50.2500,7,,-8.30,11.68
15.418000,-53.3750,8,,0.15,
15.428000,-54.1250,8,,0.15,
15.438000,-51.5000,8,,0.15,
15.448000,-52.2500,8,,0.15,
15.458000,-52.8750,8,,0.15,
15.468000,-51.6250,8,,0.15,
15.478000,-52.8750,8,,0.15,
15.488000,-50.1250,8,,0.15,
15.498000,-50.2500,8,,0.15,
15.508000,-48.7500,8,,0.15,
15.518000,-48.6250,8,,0.15,
15.528000,-46.8750,8,,0.15,
15.538000,-48.2500,8,,0.15,
15.548000,-46.0000,8,,0.15,
15.558000,-46.5000,8,,0.15,
15.568000,-46.0000,8,,0.15,
15.578000,-46.2500,8,,0.15,
15.588000,-46.7500,8,,0.15,
15.598000,-45.8750,8,,0.15,
15.608000,-45.1250,8,,0.15,
15.618000,-45.7500,8,,0.15,
15.628000,-46.2500,8,,0.15,
15.638000,-45.8750,8,,0.15,
15.648000,-46.0000,8,,0.15,
15.658000,-45.2500,8,,0.15,
15.668000,-45.3750,8,,0.15,
15.678000,-45.2500,8,,0.15,
15.688000,-45.5000,8,,0.15,
15.698000,-44.5000,8,,0.15,
15.708000,-45.0000,8,,0.15,
15.718000,-45.3750,8,,0.15,
15.728000,-45.6250,8,,0.15,
15.738000,-45.2500,8,,0.15,
15.748000,-44.7500,8,,0.15,
15.758000,-46.0000,8,,0.15,
15.768000,-45.0000,8,,0.15,
15.778000,-44.6250,8,,0.15,
15.788000,-46.1250,8,,0.15,
15.798000,-45.1250,8,,0.15,
15.808000,-45.7500,8,,0.15,
15.818000,-44.5000,8,,0.15,
15.828000,-45.1250,8,,0.15,
15.838000,-45.6250,8,,0.15,
15.848000,-44.8750,8,,0.15,
15.858000,-45.6250,8,,0.15,
15.868000,-45.8750,8,,0.15,
15.878000,-45.5000,8,,0.15,
15.888000,-45.2500,8,,0.15,
15.898000,-45.0000,8,,0.15,
15.908000,-45.8750,8,,0.15,
15.918000,-45.2500,8,,0.15,
15.928000,-46.3750,8,,0.15,
15.938000,-45.5000,8,,0.15,
15.948000,-45.3750,8,,0.15,
15.958000,-46.0000,8,,0.15,
15.968000,-46.0000,8,,0.15,
15.978000,-46.5000,8,,0.15,
15.988000,-46.3750,8,,0.15,
15.998000,-46.0000,8,,0.15,
16.008000,-46.2500,8,,0.15,
16.018000,-45.8750,8,,0.15,
16.028000,-45.6250,8,,0.15,
16.038000,-46.1250,8,,0.15,
16.048000,-46.6250,8,,0.15,
16.058000,-47.0000,8,,0.15,
16.068000,-45.8750,8,,0.15,
16.078000,-46.6250,8,,0.15,
16.088000,-46.2500,8,,0.15,
16.098000,-47.0000,9,,1.16,
16.108000,-47.5000,9,,1.16,
16.118000,-47.3750,9,,1.16,
16.128000,-48.0000,9,,1.16,
16.138000,-48.1250,9,,1.16,
16.148000,-47.7500,9,,1.16,
16.158000,-46.8750,9,,1.16,
16.168000,-48.8750,9,,1.16,
16.178000,-47.6250,9,,1.16,
16.188000,-48.2500,9,,1.16,
16.198000,-48.8750,9,,1.16,
16.208000,-49.3750,9,,1.16,
16.218000,-47.3750,9,,1.16,
16.228000,-48.8750,9,,1.16,
16.238000,-49.1250,9,,1.16,
16.248000,-50.2500,9,,1.16,
16.258000,-47.8750,9,,1.16,
16.268000,-49.5000,9,,1.16,
16.278000,-48.3750,9,,1.16,
16.288000,-49.1250,9,,1.16,
16.298000,-48.5000,9,,1.16,
16.308000,-48.7500,9,,1.16,
16.318000,-49.6250,9,,1.16,
16.328000,-49.7500,9,,1.16,
16.338000,-48.7500,9,,1.16,
16.348000,-49.2500,9,,1.16,
16.358000,-49.8750,9,,1.16,
16.368000,-51.1250,9,,1.16,
16.378000,-50.1250,9,,1.16,
16.388000,-49.0000,9,,1.16,
16.398000,-49.6250,9,,1.16,
16.408000,-50.5000,9,,1.16,
16.418000,-49.7500,9,,1.16,
16.428000,-49.2500,9,,1.16,
16.438000,-49.1250,9,,1.16,
16.448000,-50.3750,9,,1.16,
16.458000,-50.5000,9,,1.16,
16.468000,-51.3750,9,,1.16,
16.478000,-50.0000,9,,1.16,
16.488000,-50.8750,9,,1.16,
16.498000,-51.8750,9,,1.16,
16.508000,-51.8750,9,,1.16,
16.518000,-52.1250,9,,1.16,
16.528000,-52.7500,9,,1.16,
16.538000,-50.8750,9,,1.16,
16.548000,-51.3750,9,,1.16,
16.558000,-52.7500,9,,1.16,
16.568000,-52.8750,9,,1.16,
16.578000,-51.7500,9,,1.16,
16.588000,-51.6250,9,,1.16,
16.598000,-52.2500,9,,1.16,
16.608000,-52.0000,9,,1.16,
16.618000,-51.8750,9,,1.16,
16.628000,-53.2500,9,,1.16,
16.638000,-51.0000,9,,1.16,
16.648000,-53.1250,9,,1.16,
16.658000,-53.3750,9,,1.16,
16.668000,-54.2500,9,,1.16,
16.678000,-54.2500,9,,1.16,
16.688000,-53.0000,9,,1.16,
16.698000,-53.3750,9,,1.16,
16.708000,-53.1250,9,,1.16,
16.718000,-53.0000,9,,1.16,
16.728000,-52.5000,9,,1.16,
16.738000,-54.3750,9,,1.16,
16.748000,-53.1250,9,,1.16,
16.758000,-55.5000,9,,1.16,
16.768000,-53.3750,9,,1.16,
16.778000,-54.8750,9,,1.16,
16.788000,-54.2500,9,,1.16,
16.798000,-55.5000,9,,1.16,
16.808000,-53.8750,9,,1.16,
16.818000,-55.1250,9,,1.16,
16.828000,-55.3750,9,,1.16,
16.838000,-55.2500,9,,1.16,
16.848000,-55.6250,9,,1.16,
16.858000,-55.8750,9,,1.16,
16.868000,-56.1250,9,,1.16,
16.878000,-56.2500,9,,1.16,
16.888000,-55.0000,9,,1.16,
16.898000,-56.1250,9,,1.16,
16.908000,-55.8750,9,,1.16,
16.918000,-54.8750,9,,1.16,
16.928000,-56.6250,9,,1.16,
16.938000,-56.1250,9,,1.16,
16.948000,-56.6250,9,,1.16,
16.958000,-56.8750,9,,1.16,
16.968000,-56.7500,9,,1.16,
16.978000,-56.7500,9,,1.16,
16.988000,-56.1250,9,,1.16,
16.998000,-57.2500,9,,1.16,
17.008000,-57.1250,9,,1.16,
17.018000,-56.1250,9,,1.16,
17.028000,-58.5000,9,,1.16,
17.038000,-58.7500,9,,1.16,
17.048000,-57.6250,9,,1.16,
17.058000,-56.6250,9,,1.16,
17.068000,-57.8750,9,,1.16,
17.078000,-56.3750,9,,1.16,
17.088000,-58.0000,9,,1.16,
17.098000,-58.3750,9,,1.16,
17.108000,-57.7500,9,,1.16,
17.118000,-59.0000,9,,1.16,
17.128000,-57.6250,9,,1.16,
17.138000,-57.1250,9,,1.16,
17.148000,-60.6250,9,,1.16,
17.158000,-56.3750,9,,1.16,
17.168000,-57.3750,9,,1.16,
17.178000,-62.2500,9,,1.16,
17.188000,-59.2500,9,,1.16,
17.198000,-56.5000,9,,1.16,
17.208000,-58.1250,9,,1.16,
17.218000,-58.3750,9,,1.16,
17.228000,-60.3750,9,,1.16,
17.238000,-57.2500,9,,1.16,
17.248000,-60.2500,9,,1.16,
17.258000,-56.5000,9,,1.16,
17.268000,-60.0000,9,,1.16,
17.278000,-59.3750,9,,1.16,
17.288000,-59.2500,9,,1.16,
17.298000,-58.0000,9,,1.16,
17.308000,-61.3750,9,,1.16,
17.318000,-61.8750,9,,1.16,
17.328000,-58.3750,9,,1.16,
17.338000,-58.6250,9,,1.16,
17.348000,-57.8750,9,,1.16,
17.358000,-62.1250,9,,1.16,
17.368000,-58.7500,9,,1.16,
17.378000,-59.2500,9,,1.16,
17.388000,-61.2500,9,,1.16,
17.398000,-60.6250,9,,1.16,
17.408000,-59.2500,9,,1.16,
17.418000,-59.1250,9,,1.16,
17.428000,-59.0000,9,,1.16,
17.438000,-60.7500,9,,1.16,
17.448000,-60.0000,9,,1.16,
17.458000,-60.8750,9,,1.16,
17.468000,-59.8750,9,,1.16,
17.478000,-62.1250,9,,1.16,
17.488000,-61.1250,9,,1.16,
17.498000,-59.2500,9,,1.16,
17.508000,-66.6250,9,,1.16,
17.518000,-65.1250,9,,1.16,
17.528000,-63.1250,9,,1.16,
17.538000,-65.7500,9,,1.16,
17.548000,-60.5000,9,,1.16,
17.558000,-58.7500,9,,1.16,
17.568000,-62.8750,9,,1.16,
17.578000,-65.5000,9,,1.16,
17.588000,-64.2500,9,,1.16,
17.598000,-63.1250,9,,1.16,
17.608000,-62.6250,9,,1.16,
17.618000,-55.8750,9,,1.16,
17.628000,-60.2500,9,,1.16,
17.638000,-57.2500,9,,1.16,
17.648000,-67.8750,9,,1.16,
17.658000,-61.3750,9,,1.16,
17.668000,-64.8750,9,,1.16,
17.678000,-56.0000,9,,1.16,
17.688000,-61.0000,9,,1.16,
17.698000,-57.7500,9,,1.16,
17.708000,-61.2500,9,,1.16,
17.718000,-66.6250,9,,1.16,
17.728000,-62.3750,9,,1.16,
17.738000,-51.3750,9,,1.16,
17.748000,-62.7500,9,,1.16,
17.758000,-61.1250,9,,1.16,
17.768000,-61.6250,9,,1.16,
17.778000,-61.8750,9,,1.16,
17.788000,-68.2500,9,,1.16,
17.798000,-64.5000,9,,1.16,
17.808000,-62.3750,9,,1.16,
17.818000,-61.6250,9,,1.16,
17.828000,-63.0000,9,,1.16,
17.838000,-60.0000,9,,1.16,
17.848000,-63.6250,9,,1.16,
17.858000,-63.1250,9,,1.16,
17.868000,-63.2500,9,,1.16,
17.878000,-67.6250,9,,1.16,
17.888000,-54.6250,9,,1.16,
17.898000,-62.2500,9,,1.16,
17.908000,-63.0000,9,,1.16,
17.918000,-65.3750,9,,1.16,
17.928000,-61.6250,9,,1.16,
17.938000,-64.2500,9,,1.16,
17.948000,-51.6250,9,,1.16,
17.958000,-60.2500,9,,1.16,
17.968000,-39.2500,9,,1.16,
17.978000,-59.1250,9,,1.16,
17.988000,-80.3750,9,,1.16,
17.998000,-48.3750,9,,1.16,
18.008000,-43.7500,9,,1.16,
18.018000,-67.3750,9,,1.16,
18.028000,-42.3750,9,,1.16,
18.038000,-26.2500,9,,1.16,
18.048000,-5.7500,9,,1.16,
18.058000,-62.0000,9,,1.16,
18.068000,-81.8750,9,,1.16,
18.078000,-81.5000,9,,1.16,
18.088000,-86.2500,9,,1.16,
18.098000,-77.6250,9,,1.16,
18.108000,-82.8750,9,,1.16,
18.118000,-81.1250,9,,1.16,
18.128000,-76.1250,9,,1.16,
18.138000,-83.0000,9,,1.16,
18.148000,-78.7500,9,,1.16,
18.158000,-73.6250,9,,1.16,
18.168000,-80.3750,9,,1.16,
18.178000,-87.5000,9,,1.16,
18.188000,-84.7500,9,,1.16,
18.198000,-83.5000,9,,1.16,
18.208000,-80.3750,9,,1.16,
18.218000,-79.2500,9,,1.16,
18.228000,-83.6250,9,,1.16,
18.238000,-82.5000,9,,1.16,
18.248000,-81.8750,9,,1.16,
18.258000,-85.3750,9,,1.16,
18.268000,-86.1250,9,,1.16,
18.278000,-78.8750,9,,1.16,
18.288000,-84.2500,9,,1.16,
18.298000,-87.6250,9,,1.16,
18.308000,-91.5000,9,,1.16,
18.318000,-76.3750,9,,1.16,
18.328000,-80.1250,9,,1.16,
18.338000,-83.8750,9,,1.16,
18.348000,-81.8750,9,,1.16,
18.358000,-82.0000,9,,1.16,
18.368000,-95.1250,9,,1.16,
18.378000,-83.7500,9,,1.16,
18.388000,-85.1250,9,,1.16,
18.398000,-82.3750,9,,1.16,
18.408000,-84.2500,9,,1.16,
18.418000,-92.1250,9,,1.16,
18.428000,-89.5000,9,,1.16,
18.438000,-91.1250,9,,1.16,
18.448000,-79.0000,9,,1.16,
18.458000,-87.1250,9,,1.16,
18.468000,-82.1250,9,,1.16,
18.478000,-88.1250,9,,1.16,
18.488000,-83.8750,9,,1.16,
18.498000,-85.8750,9,,1.16,
18.508000,-89.2500,9,,1.16,
18.518000,-89.2500,9,,1.16,
18.528000,-78.0000,9,,1.16,
18.538000,-80.2500,9,,1.16,
18.548000,-87.0000,9,,1.16,
18.558000,-89.6250,9,,1.16,
18.568000,-87.5000,9,,1.16,
18.578000,-89.3750,9,,1.16,
18.588000,-83.5000,9,,1.16,
18.598000,-85.0000,9,,1.16,
18.608000,-85.7500,9,,1.16,
18.618000,-84.3750,9,,1.16,
18.628000,-86.1250,9,,1.16,
18.638000,-85.3750,9,,1.16,
18.648000,-84.2500,9,,1.16,
18.658000,-79.3750,9,,1.16,
18.668000,-86.5000,9,,1.16,
18.678000,-88.0000,9,,1.16,
18.688000,-86.8750,9,,1.16,
18.698000,-88.0000,9,,1.16,
18.708000,-89.8750,9,,1.16,
18.718000,-86.2500,9,,1.16,
18.728000,-83.3750,9,,1.16,
18.738000,-88.1250,9,,1.16,
18.748000,-83.3750,9,,1.16,
18.758000,-82.6250,9,,1.16,
18.768000,-90.5000,9,,1.16,
18.778000,-84.1250,9,,1.16,
18.788000,-89.5000,9,,1.16,
18.798000,-86.3750,9,,1.16,
18.808000,-88.8750,9,,1.16,
18.818000,-83.8750,9,,1.16,
18.828000,-85.6250,9,,1.16,
18.838000,-89.1250,9,,1.16,
18.848000,-83.8750,9,,1.16,
18.858000,-83.7500,9,,1.16,
18.868000,-89.0000,9,,1.16,
18.878000,-90.8750,9,,1.16,
18.888000,-84.0000,9,,1.16,
18.898000,-85.7500,9,,1.16,
18.908000,-91.1250,9,,1.16,
18.918000,-86.1250,9,,1.16,
18.928000,-92.5000,9,,1.16,
18.938000,-82.0000,9,,1.16,
18.948000,-87.1250,9,,1.16,
18.958000,-91.2500,9,,1.16,
18.968000,-84.2500,9,,1.16,
18.978000,-87.6250,9,,1.16,
18.988000,-88.1250,9,,1.16,
18.998000,-92.2500,9,,1.16,
19.008000,-88.6250,9,,1.16,
19.018000,-86.0000,9,,1.16,
19.028000,-81.0000,9,,1.16,
19.038000,-93.3750,9,,1.16,
19.048000,-81.7500,9,,1.16,
19.058000,-88.1250,9,,1.16,
19.068000,-86.1250,9,,1.16,
19.078000,-84.5000,9,,1.16,
19.088000,-84.5000,9,,1.16,
19.098000,-87.8750,9,,1.16,
19.108000,-89.5000,9,,1.16,
19.118000,-88.5000,9,,1.16,
19.128000,-88.1250,9,,1.16,
19.138000,-87.6250,9,,1.16,
19.148000,-85.3750,11,,1.25,
19.158000,-83.0000,11,,1.25,
19.168000,-88.2500,11,,1.25,
19.178000,-83.6250,11,,1.25,
19.188000,-87.1250,11,,1.25,
19.198000,-84.6250,11,,1.25,
19.208000,-82.8750,11,,1.25,
19.218000,-86.1250,11,,1.25,
19.228000,-83.5000,11,,1.25,
19.238000,-86.0000,11,,1.25,
19.248000,-83.1250,11,,1.25,
19.258000,-86.5000,11,,1.25,
19.268000,-82.8750,11,,1.25,
19.278000,-84.2500,11,,1.25,
19.288000,-86.0000,11,,1.25,
19.298000,-88.8750,11,,1.25,
19.308000,-86.7500,11,,1.25,
19.318000,-87.3750,11,,1.25,
19.328000,-86.0000,11,,1.25,
19.338000,-87.7500,11,,1.25,
19.348000,-84.7500,11,,1.25,
19.358000,-86.6250,11,,1.25,
19.368000,-85.5000,11,,1.25,
19.378000,-87.7500,11,,1.25,
19.388000,-85.0000,11,,1.25,
19.398000,-83.6250,11,,1.25,
19.408000,-86.3750,11,,1.25,
19.418000,-88.1250,11,,1.25,
19.428000,-89.3750,11,,1.25,
19.438000,-87.6250,11,,1.25,
19.448000,-86.7500,11,,1.25,
19.458000,-86.6250,11,,1.25,
19.468000,-86.1250,11,,1.25,
19.478000,-85.6250,11,,1.25,
19.488000,-85.1250,11,,1.25,
19.498000,-87.2500,11,,1.25,
19.508000,-86.5000,11,,1.25,
19.518000,-88.5000,11,,1.25,
19.528000,-84.7500,11,,1.25,
19.538000,-84.8750,11,,1.25,
19.548000,-89.0000,11,,1.25,
19.558000,-87.2500,11,,1.25,
19.568000,-86.6250,11,,1.25,
19.578000,-86.1250,11,,1.25,
19.588000,-89.7500,11,,1.25,
19.598000,-85.8750,11,,1.25,
19.608000,-84.3750,11,,1.25,
19.618000,-83.0000,11,,1.25,
19.628000,-86.5000,11,,1.25,
19.638000,-90.2500,11,,1.25,
19.648000,-87.5000,11,,1.25,
19.658000,-89.0000,11,,1.25,
19.668000,-78.5000,11,,1.25,
19.678000,-90.8750,11,,1.25,
19.688000,-86.2500,11,,1.25,
19.698000,-90.1250,11,,1.25,
19.708000,-82.5000,11,,1.25,
19.718000,-84.7500,11,,1.25,
19.728000,-96.0000,11,,1.25,
19.738000,-87.6250,11,,1.25,
19.748000,-83.1250,11,,1.25,
19.758000,-90.2500,11,,1.25,
19.768000,-85.1250,11,,1.25,
19.778000,-89.3750,11,,1.25,
19.788000,-84.5000,11,,1.25,
19.798000,-84.7500,11,,1.25,
19.808000,-88.7500,11,,1.25,
19.818000,-89.0000,11,,1.25,
19.828000,-91.5000,11,,1.25,
19.838000,-87.0000,11,,1.25,
19.848000,-87.8750,11,,1.25,
19.858000,-86.1250,11,,1.25,
19.868000,-89.3750,11,,1.25,
19.878000,-87.1250,11,,1.25,
19.888000,-86.1250,11,,1.25,
19.898000,-87.8750,11,,1.25,
19.908000,-88.7500,11,,1.25,
19.918000,-90.5000,11,,1.25,
19.928000,-86.5000,11,,1.25,
19.938000,-89.3750,11,,1.25,
19.948000,-84.3750,11,,1.25,
19.958000,-88.5000,11,,1.25,
19.968000,-84.8750,11,,1.25,
19.978000,-84.5000,11,,1.25,
19.988000,-83.7500,11,,1.25,
19.998000,-87.8750,11,,1.25,
20.008000,-88.8750,11,,1.25,
20.018000,-89.6250,11,,1.25,
20.028000,-89.5000,11,,1.25,
20.038000,-88.3750,11,,1.25,
20.048000,-87.7500,11,,1.25,
20.058000,-88.6250,11,,1.25,
20.068000,-85.8750,11,,1.25,
20.078000,-84.2500,11,,1.25,
20.088000,-87.8750,11,,1.25,
20.098000,-85.5000,11,,1.25,
20.108000,-86.1250,11,,1.25,
20.118000,-87.3750,11,,1.25,
20.128000,-88.3750,11,,1.25,
20.138000,-88.3750,11,,1.25,
20.148000,-85.2500,11,,1.25,
20.158000,-85.7500,11,,1.25,
20.168000,-88.1250,11,,1.25,
20.178000,-90.6250,11,,1.25,
20.188000,-84.2500,11,,1.25,
20.198000,-84.7500,11,,1.25,
20.208000,-86.7500,11,,1.25,
20.218000,-86.2500,11,,1.25,
20.228000,-87.5000,11,,1.25,
20.238000,-85.5000,11,,1.25,
20.248000,-86.2500,11,,1.25,
20.258000,-83.7500,11,,1.25,
20.268000,-87.2500,11,,1.25,
20.278000,-87.7500,11,,1.25,
20.288000,-89.6250,11,,1.25,
20.298000,-85.6250,11,,1.25,
20.308000,-85.7500,11,,1.25,
20.318000,-84.5000,11,,1.25,
20.328000,-86.0000,11,,1.25,
20.338000,-88.1250,11,,1.25,
20.348000,-86.6250,11,,1.25,
20.358000,-83.3750,11,,1.25,
20.368000,-87.8750,11,,1.25,
20.378000,-87.7500,11,,1.25,
20.388000,-88.0000,11,,1.25,
20.398000,-85.1250,11,,1.25,
20.408000,-84.7500,11,,1.25,
20.418000,-85.7500,11,,1.25,
20.428000,-86.3750,11,,1.25,
20.438000,-84.6250,11,,1.25,
20.448000,-86.0000,11,,1.25,
20.458000,-85.7500,11,,1.25,
20.468000,-86.5000,11,,1.25,
20.478000,-87.0000,11,,1.25,
20.488000,-87.5000,11,,1.25,
20.498000,-87.2500,11,,1.25,
20.508000,-86.2500,11,,1.25,
20.518000,-84.6250,11,,1.25,
20.528000,-87.2500,11,,1.25,
20.538000,-85.5000,11,,1.25,
20.548000,-88.5000,11,,1.25,
20.558000,-87.6250,11,,1.25,
20.568000,-85.8750,11,,1.25,
20.578000,-87.6250,11,,1.25,
20.588000,-86.8750,11,,1.25,
20.598000,-86.5000,11,,1.25,
20.608000,-88.0000,11,,1.25,
20.618000,-87.2500,11,,1.25,
20.628000,-86.5000,11,,1.25,
20.638000,-87.1250,11,,1.25,
20.648000,-84.2500,11,,1.25,
20.658000,-88.2500,11,,1.25,
20.668000,-87.0000,11,,1.25,
20.678000,-84.8750,11,,1.25,
20.688000,-88.2500,11,,1.25,
20.698000,-87.7500,11,,1.25,
20.708000,-82.2500,11,,1.25,
20.718000,-87.3750,11,,1.25,
20.728000,-88.3750,11,,1.25,
20.738000,-88.1250,11,,1.25,
20.748000,-83.8750,11,,1.25,
20.758000,-86.8750,11,,1.25,
20.768000,-85.3750,11,,1.25,
20.778000,-87.3750,11,,1.25,
20.788000,-88.6250,11,,1.25,
20.798000,-85.1250,11,,1.25,
20.808000,-87.5000,11,,1.25,
20.818000,-85.3750,11,,1.25,
20.828000,-88.7500,11,,1.25,
20.838000,-86.1250,11,,1.25,
20.848000,-84.8750,11,,1.25,
20.858000,-85.7500,11,,1.25,
20.868000,-83.3750,11,,1.25,
20.878000,-88.8750,11,,1.25,
20.888000,-86.8750,11,,1.25,
20.898000,-86.6250,11,,1.25,
20.908000,-85.6250,11,,1.25,
20.918000,-87.3750,11,,1.25,
20.928000,-87.0000,11,,1.25,
20.938000,-88.3750,11,,1.25,
20.948000,-86.3750,11,,1.25,
20.958000,-86.5000,11,,1.25,
20.968000,-86.5000,11,,1.25,
20.978000,-84.2500,11,,1.25,
20.988000,-89.1250,11,,1.25,
20.998000,-87.8750,11,,1.25,
21.008000,-86.8750,11,,1.25,
21.018000,-86.1250,11,,1.25,
21.028000,-86.0000,11,,1.25,
21.038000,-86.1250,11,,1.25,
21.048000,-88.8750,11,,1.25,
21.058000,-86.7500,11,,1.25,
21.068000,-86.2500,11,,1.25,
21.078000,-85.7500,11,,1.25,
21.088000,-87.5000,11,,1.25,
21.098000,-88.2500,11,,1.25,
21.108000,-88.1250,11,,1.25,
21.118000,-87.2500,11,,1.25,
21.128000,-84.5000,11,,1.25,
21.138000,-88.2500,11,,1.25,
21.148000,-86.2500,11,,1.25,
21.158000,-86.5000,11,,1.25,
21.168000,-87.1250,11,,1.25,
21.178000,-87.2500,11,,1.25,
21.188000,-85.8750,11,,1.25,
21.198000,-85.5000,11,,1.25,
21.208000,-85.0000,11,,1.25,
21.218000,-90.3750,11,,1.25,
21.228000,-84.3750,11,,1.25,
21.238000,-84.8750,11,,1.25,
21.248000,-87.3750,11,,1.25,
21.258000,-86.2500,11,,1.25,
21.268000,-88.5000,11,,1.25,
21.278000,-89.1250,11,,1.25,
21.288000,-88.2500,11,,1.25,
21.298000,-87.6250,11,,1.25,
21.308000,-86.3750,11,,1.25,
21.318000,-86.7500,11,,1.25,
21.328000,-87.2500,11,,1.25,
21.338000,-85.1250,11,,1.25,
21.348000,-84.8750,11,,1.25,
21.358000,-87.0000,11,,1.25,
21.368000,-87.7500,11,,1.25,
21.378000,-89.7500,11,,1.25,
21.388000,-85.7500,11,,1.25,
21.398000,-87.5000,11,,1.25,
21.408000,-88.6250,11,,1.25,
21.418000,-84.6250,11,,1.25,
21.428000,-86.6250,11,,1.25,
21.438000,-86.5000,11,,1.25,
21.448000,-84.8750,11,,1.25,
21.458000,-83.8750,11,,1.25,
21.468000,-88.5000,11,,1.25,
21.478000,-85.5000,11,,1.25,
21.488000,-87.8750,11,,1.25,
21.498000,-87.7500,11,,1.25,
21.508000,-88.2500,11,,1.25,
21.518000,-88.6250,11,,1.25,
21.528000,-90.6250,11,,1.25,
21.538000,-88.1250,11,,1.25,
21.548000,-86.3750,11,,1.25,
21.558000,-88.3750,11,,1.25,
21.568000,-86.6250,11,,1.25,
21.578000,-89.1250,11,,1.25,
21.588000,-86.7500,11,,1.25,
21.598000,-87.5000,11,,1.25,
21.608000,-87.0000,11,,1.25,
21.618000,-86.3750,11,,1.25,
21.628000,-85.5000,11,,1.25,
21.638000,-87.1250,11,,1.25,
21.648000,-88.3750,11,,1.25,
21.658000,-89.0000,11,,1.25,
21.668000,-88.0000,11,,1.25,
21.678000,-91.3750,11,,1.25,
21.688000,-86.6250,11,,1.25,
21.698000,-87.7500,11,,1.25,
21.708000,-87.7500,11,,1.25,
21.718000,-86.8750,11,,1.25,
21.728000,-91.2500,11,,1.25,
21.738000,-87.7500,11,,1.25,
21.748000,-86.6250,11,,1.25,
21.758000,-87.8750,11,,1.25,
21.768000,-87.5000,11,,1.25,
21.778000,-89.5000,11,,1.25,
21.788000,-89.6250,11,,1.25,
21.798000,-87.0000,11,,1.25,
21.808000,-83.3750,11,,1.25,
21.818000,-88.1250,11,,1.25,
21.828000,-87.1250,11,,1.25,
21.838000,-87.0000,11,,1.25,
21.848000,-85.7500,11,,1.25,
21.858000,-86.0000,11,,1.25,
21.868000,-82.6250,11,,1.25,
21.878000,-87.0000,11,,1.25,
21.888000,-90.7500,11,,1.25,
21.898000,-86.5000,11,,1.25,
21.908000,-88.1250,11,,1.25,
21.918000,-87.7500,11,,1.25,
21.928000,-86.7500,11,,1.25,
21.938000,-87.1250,11,,1.25,
21.948000,-90.3750,11,,1.25,
21.958000,-86.0000,11,,1.25,
21.968000,-90.0000,11,,1.25,
21.978000,-88.8750,11,,1.25,
21.988000,-87.6250,11,,1.25,
21.998000,-87.7500,11,,1.25,
22.008000,-84.6250,11,,1.25,
22.018000,-86.0000,11,,1.25,
22.028000,-89.3750,11,,1.25,
22.038000,-88.5000,11,,1.25,
22.048000,-88.5000,11,,1.25,
22.058000,-88.6250,11,,1.25,
22.068000,-88.3750,11,,1.25,
22.078000,-87.7500,11,,1.25,
22.088000,-88.2500,11,,1.25,
22.098000,-85.6250,11,,1.25,
22.108000,-88.0000,11,,1.25,
22.118000,-88.7500,11,,1.25,
22.128000,-88.8750,11,,1.25,
22.138000,-89.2500,11,,1.25,
22.148000,-86.2500,11,,1.25,
22.158000,-87.5000,11,,1.25,
22.168000,-91.1250,11,,1.25,
22.178000,-88.1250,11,,1.25,
22.188000,-89.3750,11,,1.25,
22.198000,-88.1250,11,,1.25,
22.208000,-88.6250,11,,1.25,
22.218000,-86.6250,11,,1.25,
22.228000,-86.1250,11,,1.25,
22.238000,-87.1250,11,,1.25,
22.248000,-88.2500,11,,1.25,
22.258000,-84.2500,11,,1.25,
22.268000,-87.6250,11,,1.25,
22.278000,-85.7500,11,,1.25,
22.288000,-90.1250,11,,1.25,
22.298000,-88.6250,11,,1.25,
22.308000,-86.7500,11,,1.25,
22.318000,-88.0000,13,,1.24,
22.328000,-87.5000,13,,1.24,
22.338000,-89.8750,13,,1.24,
22.348000,-84.6250,13,,1.24,
22.358000,-86.0000,13,,1.24,
22.368000,-90.1250,13,,1.24,
22.378000,-87.6250,13,,1.24,
22.388000,-85.0000,13,,1.24,
22.398000,-88.0000,13,,1.24,
22.408000,-86.1250,13,,1.24,
22.418000,-86.6250,13,,1.24,
22.428000,-89.8750,13,,1.24,
22.438000,-85.5000,13,,1.24,
22.448000,-86.3750,13,,1.24,
22.458000,-86.3750,13,,1.24,
22.468000,-88.1250,13,,1.24,
22.478000,-87.5000,13,,1.24,
22.488000,-87.0000,13,,1.24,
22.498000,-86.7500,13,,1.24,
22.508000,-86.6250,13,,1.24,
22.518000,-87.2500,13,,1.24,
22.528000,-83.8750,13,,1.24,
22.538000,-87.3750,13,,1.24,
22.548000,-87.5000,13,,1.24,
22.558000,-87.8750,13,,1.24,
22.568000,-85.8750,13,,1.24,
22.578000,-86.1250,13,,1.24,
22.588000,-86.0000,13,,1.24,
22.598000,-85.6250,13,,1.24,
22.608000,-86.0000,13,,1.24,
22.618000,-86.8750,13,,1.24,
22.628000,-90.0000,13,,1.24,
22.638000,-89.2500,13,,1.24,
22.648000,-87.8750,13,,1.24,
22.658000,-86.6250,13,,1.24,
22.668000,-88.3750,13,,1.24,
22.678000,-88.2500,13,,1.24,
22.688000,-86.2500,13,,1.24,
22.698000,-86.0000,13,,1.24,
22.708000,-86.3750,13,,1.24,
22.718000,-87.0000,13,,1.24,
22.728000,-85.1250,13,,1.24,
22.738000,-87.7500,13,,1.24,
22.748000,-85.1250,13,,1.24,
22.758000,-86.0000,13,,1.24,
22.768000,-89.5000,13,,1.24,
22.778000,-86.1250,13,,1.24,
22.788000,-88.8750,13,,1.24,
22.798000,-85.3750,13,,1.24,
22.808000,-86.3750,13,,1.24,
22.818000,-87.8750,13,,1.24,
22.828000,-87.6250,13,,1.24,
22.838000,-85.5000,13,,1.24,
22.848000,-90.1250,13,,1.24,
22.858000,-87.1250,13,,1.24,
22.868000,-87.7500,13,,1.24,
22.878000,-87.7500,13,,1.24,
22.888000,-86.5000,13,,1.24,
22.898000,-86.5000,13,,1.24,
22.908000,-87.1250,13,,1.24,
22.918000,-83.7500,13,,1.24,
22.928000,-88.0000,13,,1.24,
22.938000,-85.8750,13,,1.24,
22.948000,-89.3750,13,,1.24,
22.958000,-87.0000,13,,1.24,
22.968000,-89.6250,13,,1.24,
22.978000,-87.7500,13,,1.24,
22.988000,-89.8750,13,,1.24,
22.998000,-87.6250,13,,1.24,
23.008000,-87.5000,13,,1.24,
23.018000,-83.6250,13,,1.24,
23.028000,-86.0000,13,,1.24,
23.038000,-88.5000,13,,1.24,
23.048000,-87.7500,13,,1.24,
23.058000,-83.8750,13,,1.24,
23.068000,-88.6250,13,,1.24,
23.078000,-85.5000,13,,1.24,
23.088000,-87.7500,13,,1.24,
23.098000,-89.3750,13,,1.24,
23.108000,-84.3750,13,,1.24,
23.118000,-86.1250,13,,1.24,
23.128000,-86.5000,13,,1.24,
23.138000,-90.0000,13,,1.24,
23.148000,-85.0000,13,,1.24,
23.158000,-85.8750,13,,1.24,
23.168000,-89.5000,13,,1.24,
23.178000,-87.6250,13,,1.24,
23.188000,-88.0000,13,,1.24,
23.198000,-85.7500,13,,1.24,
23.208000,-87.6250,13,,1.24,
23.218000,-90.0000,13,,1.24,
23.228000,-86.8750,13,,1.24,
23.238000,-87.5000,13,,1.24,
23.248000,-85.8750,13,,1.24,
23.258000,-86.7500,13,,1.24,
23.268000,-90.2500,13,,1.24,
23.278000,-88.7500,13,,1.24,
23.288000,-88.3750,13,,1.24,
23.298000,-87.8750,13,,1.24,
23.308000,-89.5000,13,,1.24,
23.318000,-86.3750,13,,1.24,
23.328000,-88.2500,13,,1.24,
23.338000,-86.1250,13,,1.24,
23.348000,-87.5000,13,,1.24,
23.358000,-87.8750,13,,1.24,
23.368000,-85.0000,13,,1.24,
23.378000,-86.3750,13,,1.24,
23.388000,-85.6250,13,,1.24,
23.398000,-84.1250,13,,1.24,
23.408000,-85.6250,13,,1.24,
23.418000,-91.0000,13,,1.24,
23.428000,-88.8750,13,,1.24,
23.438000,-89.7500,13,,1.24,
23.448000,-86.0000,13,,1.24,
23.458000,-87.5000,13,,1.24,
23.468000,-87.0000,13,,1.24,
23.478000,-85.0000,13,,1.24,
23.488000,-88.5000,13,,1.24,
23.498000,-88.6250,13,,1.24,
23.508000,-85.5000,13,,1.24,
23.518000,-86.5000,13,,1.24,
23.528000,-86.5000,13,,1.24,
23.538000,-86.7500,13,,1.24,
23.548000,-87.7500,13,,1.24,
23.558000,-87.7500,13,,1.24,
23.568000,-87.2500,13,,1.24,
23.578000,-87.3750,13,,1.24,
23.588000,-87.1250,13,,1.24,
23.598000,-87.6250,13,,1.24,
23.608000,-85.7500,13,,1.24,
23.618000,-87.0000,13,,1.24,
23.628000,-88.2500,13,,1.24,
23.638000,-87.3750,13,,1.24,
23.648000,-89.1250,13,,1.24,
23.658000,-90.3750,13,,1.24,
23.668000,-86.5000,13,,1.24,
23.678000,-88.2500,13,,1.24,
23.688000,-87.0000,13,,1.24,
23.698000,-88.2500,13,,1.24,
23.708000,-86.0000,13,,1.24,
23.718000,-88.2500,13,,1.24,
23.728000,-87.1250,13,,1.24,
23.738000,-87.0000,13,,1.24,
23.748000,-86.3750,13,,1.24,
23.758000,-87.1250,13,,1.24,
23.768000,-87.5000,13,,1.24,
23.778000,-87.5000,13,,1.24,
23.788000,-85.8750,13,,1.24,
23.798000,-89.0000,13,,1.24,
23.808000,-86.0000,13,,1.24,
23.818000,-87.1250,13,,1.24,
23.828000,-87.2500,13,,1.24,
23.838000,-87.0000,13,,1.24,
23.848000,-86.7500,13,,1.24,
23.858000,-87.3750,13,,1.24,
23.868000,-88.8750,13,,1.24,
23.878000,-87.5000,13,,1.24,
23.888000,-87.1250,13,,1.24,
23.898000,-88.5000,13,,1.24,
23.908000,-88.3750,13,,1.24,
23.918000,-87.3750,13,,1.24,
23.928000,-87.6250,13,,1.24,
23.938000,-87.8750,13,,1.24,
23.948000,-88.3750,13,,1.24,
23.958000,-84.3750,13,,1.24,
23.968000,-88.7500,13,,1.24,
23.978000,-86.8750,13,,1.24,
23.988000,-87.5000,13,,1.24,
23.998000,-86.5000,13,,1.24,
24.008000,-88.1250,13,,1.24,
24.018000,-87.3750,13,,1.24,
24.028000,-87.6250,13,,1.24,
24.038000,-90.2500,13,,1.24,
24.048000,-88.2500,13,,1.24,
24.058000,-88.1250,13,,1.24,
24.068000,-89.8750,13,,1.24,
24.078000,-85.2500,13,,1.24,
24.088000,-87.3750,13,,1.24,
24.098000,-86.5000,13,,1.24,
24.108000,-85.5000,13,,1.24,
24.118000,-86.7500,13,,1.24,
24.128000,-86.7500,13,,1.24,
24.138000,-88.2500,13,,1.24,
24.148000,-86.7500,13,,1.24,
24.158000,-86.6250,13,,1.24,
24.168000,-89.0000,13,,1.24,
24.178000,-83.3750,13,,1.24,
24.188000,-85.3750,13,,1.24,
24.198000,-84.8750,13,,1.24,
24.208000,-90.7500,13,,1.24,
24.218000,-86.1250,13,,1.24,
24.228000,-87.6250,13,,1.24,
24.238000,-90.8750,13,,1.24,
24.248000,-87.7500,13,,1.24,
24.258000,-90.2500,13,,1.24,
24.268000,-87.6250,13,,1.24,
24.278000,-88.1250,13,,1.24,
24.288000,-87.5000,13,,1.24,
24.298000,-90.3750,13,,1.24,
24.308000,-88.8750,13,,1.24,
24.318000,-86.1250,13,,1.24,
24.328000,-83.1250,13,,1.24,
24.338000,-88.7500,13,,1.24,
24.348000,-85.3750,13,,1.24,
24.358000,-83.5000,13,,1.24,
24.368000,-87.3750,13,,1.24,
24.378000,-88.7500,13,,1.24,
24.388000,-86.6250,13,,1.24,
24.398000,-89.3750,13,,1.24,
24.408000,-88.0000,13,,1.24,
24.418000,-83.1250,13,,1.24,
24.428000,-86.3750,13,,1.24,
24.438000,-86.7500,13,,1.24,
24.448000,-85.1250,13,,1.24,
24.458000,-86.6250,13,,1.24,
24.468000,-86.6250,13,,1.24,
24.478000,-84.1250,13,,1.24,
24.488000,-87.0000,13,,1.24,
24.498000,-86.3750,13,,1.24,
24.508000,-87.6250,13,,1.24,
24.518000,-89.1250,13,,1.24,
24.528000,-86.7500,13,,1.24,
24.538000,-87.1250,13,,1.24,
24.548000,-86.8750,13,,1.24,
24.558000,-88.3750,13,,1.24,
24.568000,-86.5000,13,,1.24,
24.578000,-86.6250,13,,1.24,
24.588000,-84.1250,13,,1.24,
24.598000,-84.1250,13,,1.24,
24.608000,-84.6250,13,,1.24,
24.618000,-86.3750,13,,1.24,
24.628000,-86.5000,13,,1.24,
24.638000,-82.8750,13,,1.24,
24.648000,-85.1250,13,,1.24,
24.658000,-88.0000,13,,1.24,
24.668000,-85.2500,13,,1.24,
24.678000,-86.8750,13,,1.24,
24.688000,-85.3750,13,,1.24,
24.698000,-87.1250,13,,1.24,
24.708000,-88.0000,13,,1.24,
24.718000,-86.1250,13,,1.24,
24.728000,-87.3750,13,,1.24,
24.738000,-86.1250,13,,1.24,
24.748000,-87.1250,13,,1.24,
24.758000,-85.0000,13,,1.24,
24.768000,-86.8750,13,,1.24,
24.778000,-86.6250,13,,1.24,
24.788000,-88.6250,13,,1.24,
24.798000,-85.3750,13,,1.24,
24.808000,-84.8750,13,,1.24,
24.818000,-85.7500,13,,1.24,
24.828000,-87.5000,13,,1.24,
24.838000,-87.0000,13,,1.24,
24.848000,-88.1250,13,,1.24,
24.858000,-84.3750,13,,1.24,
24.868000,-85.5000,13,,1.24,
24.878000,-84.2500,13,,1.24,
24.888000,-83.7500,13,,1.24,
24.898000,-83.1250,13,,1.24,
24.908000,-85.0000,13,,1.24,
24.918000,-89.0000,13,,1.24,
24.928000,-87.5000,13,,1.24,
24.938000,-88.6250,13,,1.24,
24.948000,-87.2500,13,,1.24,
24.958000,-84.8750,13,,1.24,
24.968000,-86.7500,13,,1.24,
24.978000,-84.6250,13,,1.24,
24.988000,-85.3750,13,,1.24,
24.998000,-84.2500,13,,1.24,
25.008000,-86.6250,13,,1.24,
25.018000,-86.2500,13,,1.24,
25.028000,-83.6250,13,,1.24,
25.038000,-86.7500,13,,1.24,
25.048000,-87.0000,13,,1.24,
25.058000,-87.5000,13,,1.24,
25.068000,-86.7500,13,,1.24,
25.078000,-86.7500,13,,1.24,
25.088000,-85.2500,13,,1.24,
25.098000,-85.6250,13,,1.24,
25.108000,-84.6250,13,,1.24,
25.118000,-87.2500,13,,1.24,
25.128000,-89.7500,13,,1.24,
25.138000,-89.7500,13,,1.24,
25.148000,-83.1250,13,,1.24,
25.158000,-87.3750,13,,1.24,
25.168000,-85.2500,13,,1.24,
25.178000,-87.2500,13,,1.24,
25.188000,-87.3750,13,,1.24,
25.198000,-85.2500,13,,1.24,
25.208000,-87.1250,13,,1.24,
25.218000,-85.1250,13,,1.24,
25.228000,-86.6250,13,,1.24,
25.238000,-84.5000,13,,1.24,
25.248000,-86.6250,13,,1.24,
25.258000,-84.7500,13,,1.24,
25.268000,-88.7500,13,,1.24,
25.278000,-83.5000,13,,1.24,
25.288000,-89.5000,13,,1.24,
25.298000,-83.8750,13,,1.24,
25.308000,-83.8750,13,,1.24,
25.318000,-87.6250,13,,1.24,
25.328000,-85.3750,13,,1.24,
25.338000,-86.5000,13,,1.24,
25.348000,-83.2500,13,,1.24,
25.358000,-86.2500,13,,1.24,
25.368000,-83.8750,13,,1.24,
25.378000,-86.3750,13,,1.24,
25.388000,-88.5000,13,,1.24,
25.398000,-83.1250,13,,1.24,
25.408000,-85.8750,13,,1.24,
25.418000,-90.2500,13,,1.24,
25.428000,-84.1250,13,,1.24,
25.438000,-88.7500,13,,1.24,
25.448000,-86.7500,13,,1.24,
25.458000,-88.2500,13,,1.24,
25.468000,-86.0000,13,,1.24,
25.478000,-86.7500,13,,1.24,
25.488000,-89.8750,13,,1.24,
25.498000,-89.3750,13,,1.24,
25.508000,-89.3750,13,,1.24,
25.518000,-89.1250,13,,1.24,
25.528000,-87.0000,13,,1.24,
25.538000,-86.8750,13,,1.24,
25.548000,-84.6250,13,,1.24,
25.558000,-86.3750,13,,1.24,
25.568000,-83.1250,13,,1.24,
25.578000,-85.7500,13,,1.24,
25.588000,-85.1250,13,,1.24,
25.598000,-84.5000,13,,1.24,
25.608000,-86.7500,13,,1.24,
25.618000,-86.2500,13,,1.24,
25.628000,-89.1250,13,,1.24,
25.638000,-89.0000,13,,1.24,
25.648000,-86.1250,13,,1.24,
25.658000,-87.2500,13,,1.24,
25.668000,-86.5000,13,,1.24,
25.678000,-85.6250,13,,1.24,
25.688000,-90.0000,13,,1.24,
25.698000,-87.0000,13,,1.24,
25.708000,-85.5000,13,,1.24,
25.718000,-84.0000,13,,1.24,
25.728000,-87.8750,13,,1.24,
25.738000,-85.0000,13,,1.24,
25.748000,-87.5000,13,,1.24,
25.758000,-89.5000,13,,1.24,
25.768000,-88.0000,13,,1.24,
25.778000,-87.3750,13,,1.24,
25.788000,-86.8750,13,,1.24,
25.798000,-87.2500,13,,1.24,
25.808000,-89.8750,13,,1.24,
25.818000,-86.2500,13,,1.24,
25.828000,-85.6250,13,,1.24,
25.838000,-86.0000,13,,1.24,
25.848000,-84.6250,13,,1.24,
25.858000,-87.0000,13,,1.24,
25.868000,-83.8750,13,,1.24,
25.878000,-84.7500,13,,1.24,
25.888000,-87.1250,13,,1.24,
25.898000,-85.3750,13,,1.24,
25.908000,-86.0000,13,,1.24,
25.918000,-89.2500,13,,1.24,
25.928000,-85.2500,13,,1.24,
25.938000,-87.6250,13,,1.24,
25.948000,-85.6250,13,,1.24,
25.958000,-82.7500,13,,1.24,
25.968000,-86.6250,13,,1.24,
25.978000,-89.3750,13,,1.24,
25.988000,-85.8750,13,,1.24,
25.998000,-88.7500,13,,1.24,
26.008000,-86.3750,13,,1.24,
26.018000,-87.5000,13,,1.24,
26.028000,-84.3750,13,,1.24,
26.038000,-90.8750,13,,1.24,
26.048000,-82.8750,13,,1.24,
26.058000,-83.8750,13,,1.24,
26.068000,-79.3750,13,,1.24,
26.078000,-84.1250,13,,1.24,
26.088000,-77.8750,13,,1.24,
26.098000,-83.0000,13,,1.24,
26.108000,-83.0000,13,,1.24,
26.118000,-84.2500,13,,1.24,
26.128000,-85.2500,13,,1.24,
26.138000,-86.3750,13,,1.24,
26.148000,-84.3750,13,,1.24,
26.158000,-86.7500,13,,1.24,
26.168000,-85.3750,13,,1.24,
26.178000,-87.0000,13,,1.24,
26.188000,-85.1250,13,,1.24,
26.198000,-87.3750,13,,1.24,
26.208000,-84.8750,13,,1.24,
26.218000,-87.3750,13,,1.24,
26.228000,-85.3750,13,,1.24,
26.238000,-86.6250,13,,1.24,
26.248000,-85.5000,13,,1.24,
26.258000,-87.2500,13,,1.24,
26.268000,-86.1250,13,,1.24,
26.278000,-87.3750,13,,1.24,
26.288000,-85.2500,13,,1.24,
26.298000,-87.3750,13,,1.24,
26.308000,-85.1250,13,,1.24,
26.318000,-87.6250,13,,1.24,
26.328000,-85.7500,13,,1.24,
26.338000,-87.5000,13,,1.24,
26.348000,-87.0000,13,,1.24,
26.358000,-87.1250,13,,1.24,
26.368000,-86.3750,13,,1.24,
26.378000,-88.0000,15,,-11.74,
26.388000,-87.1250,15,,-11.74,
26.398000,-88.2500,15,,-11.74,
26.408000,-87.1250,15,,-11.74,
26.418000,-88.8750,15,,-11.74,
26.428000,-87.2500,15,,-11.74,
26.438000,-89.5000,15,,-11.74,
26.448000,-86.6250,15,,-11.74,
26.458000,-89.0000,15,,-11.74,
26.468000,-87.2500,15,,-11.74,
26.478000,-89.2500,15,,-11.74,
26.488000,-86.8750,15,,-11.74,
26.498000,-93.3750,15,,-11.74,
26.508000,-87.5000,15,,-11.74,
26.518000,-90.8750,15,,-11.74,
26.528000,-88.2500,15,,-11.74,
26.538000,-88.7500,15,,-11.74,
26.548000,-87.6250,15,,-11.74,
26.558000,-94.5000,15,,-11.74,
26.568000,-89.1250,15,,-11.74,
26.578000,-96.7500,15,,-11.74,
26.588000,-88.7500,15,,-11.74,
26.598000,-96.3750,15,,-11.74,
26.608000,-91.2500,15,,-11.74,
26.618000,-103.1250,15,,-11.74,
26.628000,-93.2500,15,,-11.74,
26.638000,-93.3750,15,,-11.74,
26.648000,-95.7500,15,,-11.74,
26.658000,-85.3750,15,,-11.74,
26.668000,-90.5000,15,,-11.74,
26.678000,-89.7500,15,,-11.74,
26.688000,-88.7500,15,,-11.74,
26.698000,-83.1250,15,,-11.74,
26.708000,-85.2500,15,,-11.74,
26.718000,-86.6250,15,,-11.74,
26.728000,-84.3750,15,,-11.74,
26.738000,-85.8750,15,,-11.74,
26.748000,-84.1250,15,,-11.74,
26.758000,-87.1250,15,,-11.74,
26.768000,-84.3750,15,,-11.74,
26.778000,-86.3750,15,,-11.74,
26.788000,-81.8750,15,,-11.74,
26.798000,-78.7500,15,,-11.74,
26.808000,-39.7500,15,,-11.74,
26.818000,-79.6250,15,,-11.74,
26.828000,-79.8750,15,,-11.74,
26.838000,-78.3750,15,,-11.74,
26.848000,-83.3750,15,,-11.74,
26.858000,-84.1250,15,,-11.74,
26.868000,-81.6250,15,,-11.74,
26.878000,-80.8750,15,,-11.74,
26.888000,-83.7500,15,,-11.74,
26.898000,-85.0000,15,,-11.74,
26.908000,-82.1250,15,,-11.74,
26.918000,-82.1250,15,,-11.74,
26.928000,-80.2500,15,,-11.74,
26.938000,-82.8750,15,,-11.74,
26.948000,-85.1250,15,,-11.74,
26.958000,-82.3750,15,,-11.74,
26.968000,-80.8750,15,,-11.74,
26.978000,-83.8750,15,,-11.74,
26.988000,-84.6250,15,,-11.74,
26.998000,-83.8750,15,,-11.74,
27.008000,-83.0000,15,,-11.74,
27.018000,-82.3750,15,,-11.74,
27.028000,-81.1250,15,,-11.74,
27.038000,-83.8750,15,,-11.74,
27.048000,-81.1250,15,,-11.74,
27.058000,-81.7500,15,,-11.74,
27.068000,-82.7500,15,,-11.74,
27.078000,-82.7500,15,,-11.74,
27.088000,-86.8750,15,,-11.74,
27.098000,-79.8750,15,,-11.74,
27.108000,-85.1250,15,,-11.74,
27.118000,-85.8750,15,,-11.74,
27.128000,-85.3750,15,,-11.74,
27.138000,-81.7500,15,,-11.74,
27.148000,-84.1250,15,,-11.74,
27.158000,-82.5000,15,,-11.74,
27.168000,-85.6250,15,,-11.74,
27.178000,-84.2500,15,,-11.74,
27.188000,-80.3750,15,,-11.74,
27.198000,-82.5000,15,,-11.74,
27.208000,-86.3750,15,,-11.74,
27.218000,-84.1250,15,,-11.74,
27.228000,-81.7500,15,,-11.74,
27.238000,-84.3750,15,,-11.74,
27.248000,-83.6250,15,,-11.74,
27.258000,-85.8750,15,,-11.74,
27.268000,-88.3750,15,,-11.74,
27.278000,-85.5000,15,,-11.74,
27.288000,-83.0000,15,,-11.74,
27.298000,-83.2500,15,,-11.74,
27.308000,-85.3750,15,,-11.74,
27.318000,-82.2500,15,,-11.74,
27.328000,-84.1250,15,,-11.74,
27.338000,-86.2500,15,,-11.74,
27.348000,-87.1250,15,,-11.74,
27.358000,-81.1250,15,,-11.74,
27.368000,-82.3750,15,,-11.74,
27.378000,-82.1250,15,,-11.74,
27.388000,-83.0000,15,,-11.74,
27.398000,-86.1250,15,,-11.74,
27.408000,-85.2500,15,,-11.74,
27.418000,-81.6250,15,,-11.74,
27.428000,-86.5000,15,,-11.74,
27.438000,-83.6250,15,,-11.74,
27.448000,-83.1250,15,,-11.74,
27.458000,-86.1250,15,,-11.74,
27.468000,-85.0000,15,,-11.74,
27.478000,-83.7500,15,,-11.74,
27.488000,-82.6250,15,,-11.74,
27.498000,-85.7500,15,,-11.74,
27.508000,-85.3750,15,,-11.74,
27.518000,-81.5000,15,,-11.74,
27.528000,-87.2500,15,,-11.74,
27.538000,-85.5000,15,,-11.74,
27.548000,-86.6250,15,,-11.74,
27.558000,-81.6250,15,,-11.74,
27.568000,-85.5000,15,,-11.74,
27.578000,-84.5000,15,,-11.74,
27.588000,-86.0000,15,,-11.74,
27.598000,-87.8750,15,,-11.74,
27.608000,-87.0000,15,,-11.74,
27.618000,-83.0000,15,,-11.74,
27.628000,-87.7500,15,,-11.74,
27.638000,-79.7500,15,,-11.74,
27.648000,-84.3750,15,,-11.74,
27.658000,-84.1250,15,,-11.74,
27.668000,-85.1250,15,,-11.74,
27.678000,-84.3750,15,,-11.74,
27.688000,-88.5000,15,,-11.74,
27.698000,-83.8750,15,,-11.74,
27.708000,-81.8750,15,,-11.74,
27.718000,-85.0000,15,,-11.74,
27.728000,-84.7500,15,,-11.74,
27.738000,-85.5000,15,,-11.74,
27.748000,-83.7500,15,,-11.74,
27.758000,-84.5000,15,,-11.74,
27.768000,-82.1250,15,,-11.74,
27.778000,-84.2500,15,,-11.74,
27.788000,-87.5000,15,,-11.74,
27.798000,-87.2500,15,,-11.74,
27.808000,-83.5000,15,,-11.74,
27.818000,-86.1250,15,,-11.74,
27.828000,-86.0000,15,,-11.74,
27.838000,-86.5000,15,,-11.74,
27.848000,-86.5000,15,,-11.74,
27.858000,-89.6250,15,,-11.74,
27.868000,-86.2500,15,,-11.74,
27.878000,-85.3750,15,,-11.74,
27.888000,-83.6250,15,,-11.74,
27.898000,-86.8750,15,,-11.74,
27.908000,-87.5000,15,,-11.74,
27.918000,-86.2500,15,,-11.74,
27.928000,-84.2500,15,,-11.74,
27.938000,-86.7500,15,,-11.74,
27.948000,-86.8750,15,,-11.74,
27.958000,-86.1250,15,,-11.74,
27.968000,-88.7500,15,,-11.74,
27.978000,-85.2500,15,,-11.74,
27.988000,-88.5000,15,,-11.74,
27.998000,-85.2500,15,,-11.74,
28.008000,-84.8750,15,,-11.74,
28.018000,-84.3750,15,,-11.74,
28.028000,-87.3750,15,,-11.74,
28.038000,-85.8750,15,,-11.74,
28.048000,-83.7500,15,,-11.74,
28.058000,-85.2500,15,,-11.74,
28.068000,-87.0000,15,,-11.74,
28.078000,-86.2500,15,,-11.74,
28.088000,-85.7500,15,,-11.74,
28.098000,-89.0000,15,,-11.74,
28.108000,-90.0000,15,,-11.74,
28.118000,-83.8750,15,,-11.74,
28.128000,-87.5000,15,,-11.74,
28.138000,-87.0000,15,,-11.74,
28.148000,-48.7500,15,,-11.74,
28.158000,-84.0000,15,,-11.74,
28.168000,-84.0000,15,,-11.74,
28.178000,-84.8750,15,,-11.74,
28.188000,-85.7500,15,,-11.74,
28.198000,-85.7500,15,,-11.74,
28.208000,-86.2500,15,,-11.74,
28.218000,-95.2500,15,,-11.74,
28.228000,-100.8750,15,,-11.74,
28.238000,-88.8750,15,,-11.74,
28.248000,-91.6250,15,,-11.74,
28.258000,-81.7500,15,,-11.74,
28.268000,-81.1250,15,,-11.74,
28.278000,-74.1250,15,,-11.74,
28.288000,-88.6250,15,,-11.74,
28.298000,-80.1250,15,,-11.74,
28.308000,-85.3750,15,,-11.74,
28.318000,-83.5000,15,,-11.74,
28.328000,-81.8750,15,,-11.74,
28.338000,-81.7500,15,,-11.74,
28.348000,-85.3750,15,,-11.74,
28.358000,-80.2500,15,,-11.74,
28.368000,-85.2500,15,,-11.74,
28.378000,-84.1250,15,,-11.74,
28.388000,-85.0000,15,,-11.74,
28.398000,-77.0000,15,,-11.74,
28.408000,-80.8750,15,,-11.74,
28.418000,-88.1250,15,,-11.74,
28.428000,-86.3750,15,,-11.74,
28.438000,-87.1250,15,,-11.74,
28.448000,-86.0000,15,,-11.74,
28.458000,-89.1250,15,,-11.74,
28.468000,-88.2500,15,,-11.74,
28.478000,-84.2500,15,,-11.74,
28.488000,-84.0000,15,,-11.74,
28.498000,-96.7500,15,,-11.74,
28.508000,-93.3750,15,,-11.74,
28.518000,-91.2500,15,,-11.74,
28.528000,-93.5000,15,,-11.74,
28.538000,-96.2500,15,,-11.74,
28.548000,-80.2500,15,,-11.74,
28.558000,-80.2500,15,,-11.74,
28.568000,-80.7500,15,,-11.74,
28.578000,-80.6250,15,,-11.74,
28.588000,-81.1250,15,,-11.74,
28.598000,-82.6250,15,,-11.74,
28.608000,-82.1250,15,,-11.74,
28.618000,-84.3750,15,,-11.74,
28.628000,-82.1250,15,,-11.74,
28.638000,-80.8750,15,,-11.74,
28.648000,-81.1250,15,,-11.74,
28.658000,-81.1250,15,,-11.74,
28.668000,-81.1250,15,,-11.74,
28.678000,-80.7500,15,,-11.74,
28.688000,-79.7500,15,,-11.74,
28.698000,-81.0000,15,,-11.74,
28.708000,-80.7500,15,,-11.74,
28.718000,-81.1250,15,,-11.74,
28.728000,-81.6250,15,,-11.74,
28.738000,-81.0000,15,,-11.74,
28.748000,-80.5000,15,,-11.74,
28.758000,-82.1250,15,,-11.74,
28.768000,-82.1250,15,,-11.74,
28.778000,-82.6250,15,,-11.74,
28.788000,-83.2500,15,,-11.74,
28.798000,-87.3750,15,,-11.74,
28.808000,-87.7500,15,,-11.74,
28.818000,-87.3750,15,,-11.74,
28.828000,-87.7500,15,,-11.74,
28.838000,-88.0000,15,,-11.74,
28.848000,-88.6250,15,,-11.74,
28.858000,-88.1250,15,,-11.74,
28.868000,-87.8750,15,,-11.74,
28.878000,-86.6250,15,,-11.74,
28.888000,-87.3750,15,,-11.74,
28.898000,-87.0000,15,,-11.74,
28.908000,-88.2500,15,,-11.74,
28.918000,-86.5000,15,,-11.74,
28.928000,-88.1250,15,,-11.74,
28.938000,-84.7500,15,,-11.74,
28.948000,-80.8750,15,,-11.74,
28.958000,-81.5000,15,,-11.74,
28.968000,-81.1250,15,,-11.74,
28.978000,-80.8750,15,,-11.74,
28.988000,-81.7500,15,,-11.74,
28.998000,-80.8750,15,,-11.74,
29.008000,-81.2500,15,,-11.74,
29.018000,-80.3750,15,,-11.74,
29.028000,-79.3750,15,,-11.74,
29.038000,-80.6250,15,,-11.74,
29.048000,-81.0000,15,,-11.74,
29.058000,-81.0000,15,,-11.74,
29.068000,-80.0000,15,,-11.74,
29.078000,-81.2500,15,,-11.74,
29.088000,-81.0000,15,,-11.74,
29.098000,-81.2500,15,,-11.74,
29.108000,-82.1250,15,,-11.74,
29.118000,-82.3750,15,,-11.74,
29.128000,-82.2500,15,,-11.74,
29.138000,-82.6250,15,,-11.74,
29.148000,-83.7500,15,,-11.74,
29.158000,-84.8750,15,,-11.74,
29.168000,-86.1250,15,,-11.74,
29.178000,-86.8750,15,,-11.74,
29.188000,-87.0000,15,,-11.74,
29.198000,-86.8750,15,,-11.74,
29.208000,-86.6250,15,,-11.74,
29.218000,-86.5000,15,,-11.74,
29.228000,-87.0000,15,,-11.74,
29.238000,-86.7500,15,,-11.74,
29.248000,-87.5000,15,,-11.74,
29.258000,-86.8750,15,,-11.74,
29.268000,-87.8750,15,,-11.74,
29.278000,-86.3750,15,,-11.74,
29.288000,-87.3750,15,,-11.74,
29.298000,-85.5000,15,,-11.74,
29.308000,-87.3750,15,,-11.74,
29.318000,-85.5000,15,,-11.74,
29.328000,-87.0000,15,,-11.74,
29.338000,-85.6250,15,,-11.74,
29.348000,-86.2500,15,,-11.74,
29.358000,-86.5000,15,,-11.74,
29.368000,-85.7500,15,,-11.74,
29.378000,-85.7500,15,,-11.74,
29.388000,-86.3750,15,,-11.74,
29.398000,-86.3750,15,,-11.74,
29.408000,-86.7500,15,,-11.74,
29.418000,-85.5000,15,,-11.74,
29.428000,-85.5000,15,,-11.74,
29.438000,-82.5000,15,,-11.74,
29.448000,-82.5000,15,,-11.74,
29.458000,-82.1250,15,,-11.74,
29.468000,-81.7500,17,40.87,-1.48,11.85
29.478000,-82.0000,17,40.87,-1.48,11.85
29.488000,-81.5000,17,40.87,-1.48,11.85
29.498000,-81.1250,17,40.87,-1.48,11.85
29.508000,-81.5000,17,40.87,-1.48,11.85
29.518000,-81.6250,17,40.87,-1.48,11.85
29.528000,-81.2500,17,40.87,-1.48,11.85
29.538000,-80.8750,17,40.87,-1.48,11.85
29.548000,-80.3750,17,40.87,-1.48,11.85
29.558000,-81.0000,17,40.87,-1.48,11.85
29.568000,-80.2500,17,40.87,-1.48,11.85
29.578000,-81.1250,17,40.87,-1.48,11.85
29.588000,-80.2500,17,40.87,-1.48,11.85
29.598000,-80.5000,17,40.87,-1.48,11.85
29.608000,-80.2500,17,40.87,-1.48,11.85
29.618000,-79.8750,17,40.87,-1.48,11.85
29.628000,-80.3750,17,40.87,-1.48,11.85
29.638000,-80.1250,17,40.87,-1.48,11.85
29.648000,-81.7500,17,40.87,-1.48,11.85
29.658000,-80.0000,17,40.87,-1.48,11.85
29.668000,-81.1250,17,40.87,-1.48,11.85
29.678000,-80.0000,17,40.87,-1.48,11.85
29.688000,-80.8750,17,40.87,-1.48,11.85
29.698000,-79.8750,17,40.87,-1.48,11.85
29.708000,-80.1250,17,40.87,-1.48,11.85
29.718000,-80.0000,17,40.87,-1.48,11.85
29.728000,-80.3750,17,40.87,-1.48,11.85
29.738000,-81.8750,17,40.87,-1.48,11.85
29.748000,-83.1250,17,40.87,-1.48,11.85
29.758000,-81.6250,17,40.87,-1.48,11.85
29.768000,-82.3750,17,40.87,-1.48,11.85
29.778000,-83.3750,17,40.87,-1.48,11.85
29.788000,-83.3750,17,40.87,-1.48,11.85
29.798000,-82.7500,17,40.87,-1.48,11.85
29.808000,-83.6250,17,40.87,-1.48,11.85
29.818000,-83.6250,17,40.87,-1.48,11.85
29.828000,-83.6250,17,40.87,-1.48,11.85
29.838000,-83.1250,17,40.87,-1.48,11.85
29.848000,-83.2500,17,40.87,-1.48,11.85
29.858000,-83.8750,17,40.87,-1.48,11.85
29.868000,-83.1250,17,40.87,-1.48,11.85
29.878000,-83.1250,17,40.87,-1.48,11.85
29.888000,-82.5000,17,40.87,-1.48,11.85
29.898000,-82.6250,17,40.87,-1.48,11.85
29.908000,-82.5000,17,40.87,-1.48,11.85
29.918000,-82.6250,17,40.87,-1.48,11.85
29.928000,-81.8750,17,40.87,-1.48,11.85
29.938000,-81.7500,17,40.87,-1.48,11.85
29.948000,-82.3750,17,40.87,-1.48,11.85
29.958000,-81.6250,17,40.87,-1.48,11.85
29.968000,-82.0000,17,40.87,-1.48,11.85
29.978000,-80.0000,17,40.87,-1.48,11.85
29.988000,-80.6250,17,40.87,-1.48,11.85
29.998000,-80.2500,17,40.87,-1.48,11.85
30.008000,-78.2500,17,40.87,-1.48,11.85
30.018000,-80.6250,17,40.87,-1.48,11.85
30.028000,-79.6250,17,40.87,-1.48,11.85
30.038000,-79.5000,17,40.87,-1.48,11.85
30.048000,-81.7500,17,40.87,-1.48,11.85
30.058000,-75.5000,17,40.87,-1.48,11.85
30.068000,-36.0000,17,40.87,-1.48,11.85
30.078000,-69.0000,17,40.87,-1.48,11.85
30.088000,-94.7500,17,40.87,-1.48,11.85
30.098000,-61.7500,17,40.87,-1.48,11.85
30.108000,-92.6250,17,40.87,-1.48,11.85
30.118000,-106.8750,17,40.87,-1.48,11.85
30.128000,-88.5000,17,40.87,-1.48,11.85
30.138000,-84.1250,17,40.87,-1.48,11.85
30.148000,-95.0000,17,40.87,-1.48,11.85
30.158000,-85.7500,17,40.87,-1.48,11.85
30.168000,-81.8750,17,40.87,-1.48,11.85
30.178000,-88.6250,17,40.87,-1.48,11.85
30.188000,-97.8750,17,40.87,-1.48,11.85
30.198000,-97.0000,17,40.87,-1.48,11.85
30.208000,-83.5000,17,40.87,-1.48,11.85
30.218000,-85.8750,17,40.87,-1.48,11.85
30.228000,-100.0000,17,40.87,-1.48,11.85
30.238000,-85.1250,17,40.87,-1.48,11.85
30.248000,-97.7500,17,40.87,-1.48,11.85
30.258000,-78.0000,17,40.87,-1.48,11.85
30.268000,-82.7500,17,40.87,-1.48,11.85
30.278000,-82.6250,17,40.87,-1.48,11.85
30.288000,-84.2500,17,40.87,-1.48,11.85
30.298000,-80.3750,17,40.87,-1.48,11.85
30.308000,-88.3750,17,40.87,-1.48,11.85
30.318000,-85.3750,17,40.87,-1.48,11.85
30.328000,-91.3750,17,40.87,-1.48,11.85
30.338000,-82.6250,17,40.87,-1.48,11.85
30.348000,-85.3750,17,40.87,-1.48,11.85
30.358000,-78.7500,17,40.87,-1.48,11.85
30.368000,-89.0000,17,40.87,-1.48,11.85
30.378000,-89.3750,17,40.87,-1.48,11.85
30.388000,-89.7500,17,40.87,-1.48,11.85
30.398000,-93.2500,17,40.87,-1.48,11.85
30.408000,-90.3750,17,40.87,-1.48,11.85
30.418000,-88.2500,17,40.87,-1.48,11.85
30.428000,-86.6250,17,40.87,-1.48,11.85
30.438000,-82.7500,17,40.87,-1.48,11.85
30.448000,-88.6250,17,40.87,-1.48,11.85
30.458000,-89.3750,17,40.87,-1.48,11.85
30.468000,-86.1250,17,40.87,-1.48,11.85
30.478000,-84.0000,17,40.87,-1.48,11.85
30.488000,-82.6250,17,40.87,-1.48,11.85
30.498000,-87.3750,17,40.87,-1.48,11.85
30.508000,-86.8750,17,40.87,-1.48,11.85
30.518000,-86.7500,17,40.87,-1.48,11.85
30.528000,-82.6250,17,40.87,-1.48,11.85
30.538000,-84.5000,17,40.87,-1.48,11.85
30.548000,-84.7500,17,40.87,-1.48,11.85
30.558000,-86.5000,17,40.87,-1.48,11.85
30.568000,-84.2500,17,40.87,-1.48,11.85
30.578000,-85.3750,17,40.87,-1.48,11.85
30.588000,-84.5000,17,40.87,-1.48,11.85
30.598000,-89.5000,17,40.87,-1.48,11.85
30.608000,-89.2500,17,40.87,-1.48,11.85
30.618000,-83.7500,17,40.87,-1.48,11.85
30.628000,-85.6250,17,40.87,-1.48,11.85
30.638000,-86.8750,17,40.87,-1.48,11.85
30.648000,-83.8750,17,40.87,-1.48,11.85
30.658000,-85.1250,17,40.87,-1.48,11.85
30.668000,-90.1250,17,40.87,-1.48,11.85
30.678000,-84.6250,17,40.87,-1.48,11.85
30.688000,-84.6250,17,40.87,-1.48,11.85
30.698000,-85.5000,17,40.87,-1.48,11.85
30.708000,-88.3750,17,40.87,-1.48,11.85
30.718000,-87.8750,17,40.87,-1.48,11.85
30.728000,-87.7500,17,40.87,-1.48,11.85
30.738000,-88.7500,17,40.87,-1.48,11.85
30.748000,-85.0000,17,40.87,-1.48,11.85
30.758000,-88.5000,17,40.87,-1.48,11.85
30.768000,-89.1250,17,40.87,-1.48,11.85
30.778000,-87.6250,17,40.87,-1.48,11.85
30.788000,-83.2500,17,40.87,-1.48,11.85
30.798000,-86.2500,17,40.87,-1.48,11.85
30.808000,-85.3750,17,40.87,-1.48,11.85
30.818000,-87.3750,17,40.87,-1.48,11.85
30.828000,-89.1250,17,40.87,-1.48,11.85
30.838000,-84.3750,17,40.87,-1.48,11.85
30.848000,-91.0000,17,40.87,-1.48,11.85
30.858000,-88.3750,17,40.87,-1.48,11.85
30.868000,-84.7500,17,40.87,-1.48,11.85
30.878000,-90.5000,17,40.87,-1.48,11.85
30.888000,-87.2500,17,40.87,-1.48,11.85
30.898000,-87.1250,17,40.87,-1.48,11.85
30.908000,-89.0000,17,40.87,-1.48,11.85
30.918000,-86.7500,17,40.87,-1.48,11.85
30.928000,-86.6250,17,40.87,-1.48,11.85
30.938000,-88.7500,17,40.87,-1.48,11.85
30.948000,-87.5000,17,40.87,-1.48,11.85
30.958000,-89.3750,17,40.87,-1.48,11.85
30.968000,-88.6250,17,40.87,-1.48,11.85
30.978000,-89.1250,17,40.87,-1.48,11.85
30.988000,-88.1250,17,40.87,-1.48,11.85
30.998000,-87.5000,17,40.87,-1.48,11.85
31.008000,-89.8750,17,40.87,-1.48,11.85
31.018000,-89.3750,17,40.87,-1.48,11.85
31.028000,-78.7500,17,40.87,-1.48,11.85
31.038000,-84.5000,17,40.87,-1.48,11.85
31.048000,-87.2500,17,40.87,-1.48,11.85
31.058000,-82.7500,17,40.87,-1.48,11.85
31.068000,-95.5000,17,40.87,-1.48,11.85
31.078000,-52.5000,17,40.87,-1.48,11.85
31.088000,-81.7500,17,40.87,-1.48,11.85
31.098000,-85.0000,17,40.87,-1.48,11.85
31.108000,-84.3750,17,40.87,-1.48,11.85
31.118000,-85.8750,17,40.87,-1.48,11.85
31.128000,-86.2500,17,40.87,-1.48,11.85
31.138000,-86.3750,17,40.87,-1.48,11.85
31.148000,-84.8750,17,40.87,-1.48,11.85
31.158000,-84.7500,17,40.87,-1.48,11.85
31.168000,-85.2500,17,40.87,-1.48,11.85
31.178000,-86.1250,17,40.87,-1.48,11.85
31.188000,-85.5000,17,40.87,-1.48,11.85
31.198000,-86.1250,17,40.87,-1.48,11.85
31.208000,-87.0000,17,40.87,-1.48,11.85
31.218000,-86.5000,17,40.87,-1.48,11.85
31.228000,-90.3750,17,40.87,-1.48,11.85
31.238000,-90.8750,17,40.87,-1.48,11.85
31.248000,-92.2500,17,40.87,-1.48,11.85
31.258000,-93.6250,17,40.87,-1.48,11.85
31.268000,-92.7500,17,40.87,-1.48,11.85
31.278000,-92.3750,17,40.87,-1.48,11.85
31.288000,-92.0000,17,40.87,-1.48,11.85
31.298000,-93.5000,17,40.87,-1.48,11.85
31.308000,-94.2500,17,40.87,-1.48,11.85
31.318000,-92.2500,17,40.87,-1.48,11.85
31.328000,-92.3750,17,40.87,-1.48,11.85
31.338000,-91.3750,17,40.87,-1.48,11.85
31.348000,-92.2500,17,40.87,-1.48,11.85
31.358000,-92.2500,17,40.87,-1.48,11.85
31.368000,-90.6250,17,40.87,-1.48,11.85
31.378000,-92.3750,17,40.87,-1.48,11.85
31.388000,-89.7500,17,40.87,-1.48,11.85
31.398000,-91.1250,17,40.87,-1.48,11.85
31.408000,-88.6250,17,40.87,-1.48,11.85
31.418000,-87.7500,17,40.87,-1.48,11.85
31.428000,-90.6250,17,40.87,-1.48,11.85
31.438000,-88.2500,17,40.87,-1.48,11.85
31.448000,-87.8750,17,40.87,-1.48,11.85
31.458000,-88.5000,17,40.87,-1.48,11.85
31.468000,-88.2500,17,40.87,-1.48,11.85
31.478000,-88.0000,17,40.87,-1.48,11.85
31.488000,-88.8750,17,40.87,-1.48,11.85
31.498000,-86.2500,17,40.87,-1.48,11.85
31.508000,-87.8750,17,40.87,-1.48,11.85
31.518000,-87.6250,17,40.87,-1.48,11.85
31.528000,-90.3750,17,40.87,-1.48,11.85
31.538000,-86.7500,17,40.87,-1.48,11.85
31.548000,-85.8750,17,40.87,-1.48,11.85
31.558000,-89.3750,17,40.87,-1.48,11.85
31.568000,-87.7500,17,40.87,-1.48,11.85
31.578000,-81.1250,17,40.87,-1.48,11.85
31.588000,-79.7500,17,40.87,-1.48,11.85
31.598000,-79.1250,17,40.87,-1.48,11.85
31.608000,-61.6250,17,40.87,-1.48,11.85
31.618000,-86.5000,17,40.87,-1.48,11.85
31.628000,-82.2500,17,40.87,-1.48,11.85
31.638000,-82.7500,17,40.87,-1.48,11.85
31.648000,-85.1250,17,40.87,-1.48,11.85
31.658000,-93.3750,17,40.87,-1.48,11.85
31.668000,-83.7500,17,40.87,-1.48,11.85
31.678000,-86.1250,17,40.87,-1.48,11.85
31.688000,-85.0000,17,40.87,-1.48,11.85
31.698000,-76.6250,17,40.87,-1.48,11.85
31.708000,-89.8750,17,40.87,-1.48,11.85
31.718000,-87.3750,17,40.87,-1.48,11.85
31.728000,-86.6250,17,40.87,-1.48,11.85
31.738000,-84.1250,17,40.87,-1.48,11.85
31.748000,-80.8750,17,40.87,-1.48,11.85
31.758000,-88.8750,17,40.87,-1.48,11.85
31.768000,-83.5000,17,40.87,-1.48,11.85
31.778000,-85.7500,17,40.87,-1.48,11.85
31.788000,-88.5000,17,40.87,-1.48,11.85
31.798000,-82.1250,17,40.87,-1.48,11.85
31.808000,-84.2500,17,40.87,-1.48,11.85
31.818000,-86.2500,17,40.87,-1.48,11.85
31.828000,-84.5000,17,40.87,-1.48,11.85
31.838000,-85.1250,17,40.87,-1.48,11.85
31.848000,-87.3750,17,40.87,-1.48,11.85
31.858000,-87.7500,17,40.87,-1.48,11.85
31.868000,-88.6250,17,40.87,-1.48,11.85
31.878000,-85.5000,17,40.87,-1.48,11.85
31.888000,-89.1250,17,40.87,-1.48,11.85
31.898000,1046.6250,17,40.87,-1.48,11.85
31.908000,1033.2500,17,40.87,-1.48,11.85
31.918000,637.1250,17,40.87,-1.48,11.85
31.928000,972.3750,17,40.87,-1.48,11.85
31.938000,-863.1250,17,40.87,-1.48,11.85
31.948000,-778.6250,17,40.87,-1.48,11.85
31.958000,-734.5000,17,40.87,-1.48,11.85
31.968000,-717.6250,17,40.87,-1.48,11.85
31.978000,-703.6250,17,40.87,-1.48,11.85
31.988000,-686.5000,17,40.87,-1.48,11.85
31.998000,-672.1250,17,40.87,-1.48,11.85
32.008000,-654.3750,17,40.87,-1.48,11.85
32.018000,-633.2500,17,40.87,-1.48,11.85
32.028000,-622.5000,17,40.87,-1.48,11.85
32.038000,-610.1250,17,40.87,-1.48,11.85
32.048000,-597.8750,17,40.87,-1.48,11.85
32.058000,-585.1250,17,40.87,-1.48,11.85
32.068000,-575.7500,17,40.87,-1.48,11.85
32.078000,-564.7500,17,40.87,-1.48,11.85
32.088000,-539.0000,17,40.87,-1.48,11.85
32.098000,-517.5000,17,40.87,-1.48,11.85
32.108000,-499.2500,17,40.87,-1.48,11.85
32.118000,-484.3750,17,40.87,-1.48,11.85
32.128000,-407.3750,17,40.87,-1.48,11.85
32.138000,-400.6250,17,40.87,-1.48,11.85
32.148000,-395.0000,17,40.87,-1.48,11.85
32.158000,-386.1250,17,40.87,-1.48,11.85
32.168000,-380.7500,17,40.87,-1.48,11.85
32.178000,-384.5000,17,40.87,-1.48,11.85
32.188000,-380.2500,17,40.87,-1.48,11.85
32.198000,-372.2500,17,40.87,-1.48,11.85
32.208000,-358.0000,17,40.87,-1.48,11.85
32.218000,-341.2500,17,40.87,-1.48,11.85
32.228000,-333.8750,17,40.87,-1.48,11.85
32.238000,-328.1250,17,40.87,-1.48,11.85
32.248000,-322.0000,17,40.87,-1.48,11.85
32.258000,-320.3750,17,40.87,-1.48,11.85
32.268000,-309.6250,17,40.87,-1.48,11.85
32.278000,-294.5000,17,40.87,-1.48,11.85
32.288000,-65.1250,17,40.87,-1.48,11.85
32.298000,-51.6250,17,40.87,-1.48,11.85
32.308000,-45.2500,17,40.87,-1.48,11.85
32.318000,533.2500,17,40.87,-1.48,11.85
32.328000,-297.3750,17,40.87,-1.48,11.85
32.338000,-292.6250,17,40.87,-1.48,11.85
32.348000,-284.7500,17,40.87,-1.48,11.85
32.358000,-277.8750,17,40.87,-1.48,11.85
32.368000,-269.2500,17,40.87,-1.48,11.85
32.378000,-255.2500,17,40.87,-1.48,11.85
32.388000,-253.0000,17,40.87,-1.48,11.85
32.398000,-249.2500,17,40.87,-1.48,11.85
32.408000,-245.8750,17,40.87,-1.48,11.85
32.418000,-234.1250,17,40.87,-1.48,11.85
32.428000,-223.8750,17,40.87,-1.48,11.85
32.438000,-218.1250,17,40.87,-1.48,11.85
32.448000,-192.1250,17,40.87,-1.48,11.85
32.458000,-186.7500,17,40.87,-1.48,11.85
32.468000,-184.6250,17,40.87,-1.48,11.85
32.478000,-179.7500,17,40.87,-1.48,11.85
32.488000,-175.7500,17,40.87,-1.48,11.85
32.498000,-173.3750,17,40.87,-1.48,11.85
32.508000,-171.3750,17,40.87,-1.48,11.85
32.518000,-168.7500,17,40.87,-1.48,11.85
32.528000,-162.7500,17,40.87,-1.48,11.85
32.538000,-160.0000,17,40.87,-1.48,11.85
32.548000,-159.1250,17,40.87,-1.48,11.85
32.558000,-142.3750,17,40.87,-1.48,11.85
32.568000,-133.0000,17,40.87,-1.48,11.85
32.578000,-142.2500,17,40.87,-1.48,11.85
32.588000,-136.6250,17,40.87,-1.48,11.85
32.598000,-138.6250,17,40.87,-1.48,11.85
32.608000,-137.5000,17,40.87,-1.48,11.85
32.618000,-125.5000,17,40.87,-1.48,11.85
32.628000,-130.8750,17,40.87,-1.48,11.85
32.638000,-125.1250,17,40.87,-1.48,11.85
32.648000,-116.6250,17,40.87,-1.48,11.85
32.658000,-115.2500,17,40.87,-1.48,11.85
32.668000,-88.8750,17,40.87,-1.48,11.85
32.678000,-128.2500,17,40.87,-1.48,11.85
32.688000,10.8750,17,40.87,-1.48,11.85
32.698000,-100.0000,17,40.87,-1.48,11.85
32.708000,367.2500,17,40.87,-1.48,11.85
32.718000,291.8750,17,40.87,-1.48,11.85
32.728000,65.6250,17,40.87,-1.48,11.85
32.738000,321.3750,17,40.87,-1.48,11.85
32.748000,-588.2500,17,40.87,-1.48,11.85
32.758000,-833.2500,17,40.87,-1.48,11.85
32.768000,-546.2500,17,40.87,-1.48,11.85
32.778000,-184.3750,17,40.87,-1.48,11.85
32.788000,-312.6250,17,40.87,-1.48,11.85
32.798000,-1264.6250,17,40.87,-1.48,11.85
32.808000,-1233.7500,17,40.87,-1.48,11.85
32.818000,-1211.7500,17,40.87,-1.48,11.85
32.828000,-1177.8750,17,40.87,-1.48,11.85
32.838000,-1146.6250,17,40.87,-1.48,11.85
32.848000,-1111.7500,17,40.87,-1.48,11.85
32.858000,-1070.2500,17,40.87,-1.48,11.85
32.868000,-1064.2500,17,40.87,-1.48,11.85
32.878000,-1046.8750,17,40.87,-1.48,11.85
32.888000,-1041.8750,17,40.87,-1.48,11.85
32.898000,-821.7500,17,40.87,-1.48,11.85
32.908000,-867.7500,17,40.87,-1.48,11.85
32.918000,-795.1250,17,40.87,-1.48,11.85
32.928000,-270.1250,17,40.87,-1.48,11.85
32.938000,-233.2500,17,40.87,-1.48,11.85
32.948000,-183.3750,17,40.87,-1.48,11.85
32.958000,-163.5000,17,40.87,-1.48,11.85
32.968000,-156.5000,17,40.87,-1.48,11.85
32.978000,-344.7500,17,40.87,-1.48,11.85
32.988000,-216.8750,17,40.87,-1.48,11.85
32.998000,-222.3750,17,40.87,-1.48,11.85
33.008000,-200.2500,17,40.87,-1.48,11.85
33.018000,17.0000,17,40.87,-1.48,11.85
33.028000,-759.1250,17,40.87,-1.48,11.85
33.038000,215.8750,17,40.87,-1.48,11.85
33.048000,-745.6250,17,40.87,-1.48,11.85
33.058000,1024.2500,17,40.87,-1.48,11.85
33.068000,-499.6250,17,40.87,-1.48,11.85
33.078000,1024.3750,17,40.87,-1.48,11.85
33.088000,-305.3750,17,40.87,-1.48,11.85
33.098000,1023.0000,17,40.87,-1.48,11.85
33.108000,462.2500,17,40.87,-1.48,11.85
33.118000,815.5000,17,40.87,-1.48,11.85
33.128000,422.5000,17,40.87,-1.48,11.85
33.138000,258.6250,17,40.87,-1.48,11.85
33.148000,-4.5000,17,40.87,-1.48,11.85
33.158000,-811.5000,17,40.87,-1.48,11.85
33.168000,-1084.0000,17,40.87,-1.48,11.85
33.178000,-229.1250,17,40.87,-1.48,11.85
33.188000,-799.2500,17,40.87,-1.48,11.85
33.198000,-98.8750,17,40.87,-1.48,11.85
33.208000,-775.1250,17,40.87,-1.48,11.85
33.218000,-807.5000,17,40.87,-1.48,11.85
33.228000,-895.2500,17,40.87,-1.48,11.85
33.238000,-351.3750,17,40.87,-1.48,11.85
33.248000,-769.6250,17,40.87,-1.48,11.85
33.258000,-858.5000,17,40.87,-1.48,11.85
33.268000,-482.5000,17,40.87,-1.48,11.85
33.278000,-783.1250,17,40.87,-1.48,11.85
33.288000,-652.7500,17,40.87,-1.48,11.85
33.298000,-788.0000,17,40.87,-1.48,11.85
33.308000,-584.7500,17,40.87,-1.48,11.85
33.318000,-722.6250,17,40.87,-1.48,11.85
33.328000,-511.6250,17,40.87,-1.48,11.85
33.338000,-648.6250,17,40.87,-1.48,11.85
33.348000,-416.5000,17,40.87,-1.48,11.85
33.358000,-587.8750,17,40.87,-1.48,11.85
33.368000,-956.3750,17,40.87,-1.48,11.85
33.378000,-1339.2500,17,40.87,-1.48,11.85
33.388000,-1299.6250,17,40.87,-1.48,11.85
33.398000,-1282.0000,17,40.87,-1.48,11.85
33.408000,-1264.5000,17,40.87,-1.48,11.85
33.418000,-1251.1250,17,40.87,-1.48,11.85
33.428000,-1244.2500,17,40.87,-1.48,11.85
33.438000,-1221.5000,17,40.87,-1.48,11.85
33.448000,-1217.0000,17,40.87,-1.48,11.85
33.458000,-1180.7500,17,40.87,-1.48,11.85
33.468000,-1163.3750,17,40.87,-1.48,11.85
33.478000,-1148.1250,17,40.87,-1.48,11.85
33.488000,-1130.8750,17,40.87,-1.48,11.85
33.498000,-1116.3750,17,40.87,-1.48,11.85
33.508000,-1100.8750,17,40.87,-1.48,11.85
33.518000,-1083.7500,17,40.87,-1.48,11.85
33.528000,-1070.5000,17,40.87,-1.48,11.85
33.538000,-1056.5000,17,40.87,-1.48,11.85
33.548000,-1042.1250,17,40.87,-1.48,11.85
33.558000,-1055.1250,17,40.87,-1.48,11.85
33.568000,-1016.1250,17,40.87,-1.48,11.85
33.578000,-1001.0000,17,40.87,-1.48,11.85
33.588000,-987.7500,17,40.87,-1.48,11.85
33.598000,-971.6250,19,153.06,1.58,23.84
33.608000,-959.1250,19,153.06,1.58,23.84
33.618000,-946.2500,19,153.06,1.58,23.84
33.628000,-932.8750,19,153.06,1.58,23.84
33.638000,-920.6250,19,153.06,1.58,23.84
33.648000,-908.5000,19,153.06,1.58,23.84
33.658000,-896.2500,19,153.06,1.58,23.84
33.668000,-882.3750,19,153.06,1.58,23.84
33.678000,-870.6250,19,153.06,1.58,23.84
33.688000,-858.7500,19,153.06,1.58,23.84
33.698000,-848.2500,19,153.06,1.58,23.84
33.708000,-835.0000,19,153.06,1.58,23.84
33.718000,-821.5000,19,153.06,1.58,23.84
33.728000,-811.8750,19,153.06,1.58,23.84
33.738000,-800.1250,19,153.06,1.58,23.84
33.748000,-789.2500,19,153.06,1.58,23.84
33.758000,-779.1250,19,153.06,1.58,23.84
33.768000,-766.6250,19,153.06,1.58,23.84
33.778000,-757.1250,19,153.06,1.58,23.84
33.788000,-745.8750,19,153.06,1.58,23.84
33.798000,-736.2500,19,153.06,1.58,23.84
33.808000,-726.2500,19,153.06,1.58,23.84
33.818000,-716.5000,19,153.06,1.58,23.84
33.828000,-705.0000,19,153.06,1.58,23.84
33.838000,-693.5000,19,153.06,1.58,23.84
33.848000,-687.2500,19,153.06,1.58,23.84
33.858000,-676.5000,19,153.06,1.58,23.84
33.868000,-667.7500,19,153.06,1.58,23.84
33.878000,-650.5000,19,153.06,1.58,23.84
33.888000,-642.7500,19,153.06,1.58,23.84
33.898000,-633.3750,19,153.06,1.58,23.84
33.908000,-625.8750,19,153.06,1.58,23.84
33.918000,-616.3750,19,153.06,1.58,23.84
33.928000,-608.8750,19,153.06,1.58,23.84
33.938000,-599.3750,19,153.06,1.58,23.84
33.948000,-590.8750,19,153.06,1.58,23.84
33.958000,-582.1250,19,153.06,1.58,23.84
33.968000,-574.6250,19,153.06,1.58,23.84
33.978000,-565.3750,19,153.06,1.58,23.84
33.988000,-556.3750,19,153.06,1.58,23.84
33.998000,-548.6250,19,153.06,1.58,23.84
34.008000,-540.7500,19,153.06,1.58,23.84
34.018000,-533.1250,19,153.06,1.58,23.84
34.028000,-524.5000,19,153.06,1.58,23.84
34.038000,-516.7500,19,153.06,1.58,23.84
34.048000,-508.7500,19,153.06,1.58,23.84
34.058000,-500.6250,19,153.06,1.58,23.84
34.068000,-493.6250,19,153.06,1.58,23.84
34.078000,-486.1250,19,153.06,1.58,23.84
34.088000,-473.7500,19,153.06,1.58,23.84
34.098000,-471.2500,19,153.06,1.58,23.84
34.108000,-463.7500,19,153.06,1.58,23.84
34.118000,-457.5000,19,153.06,1.58,23.84
34.128000,-449.7500,19,153.06,1.58,23.84
34.138000,-443.0000,19,153.06,1.58,23.84
34.148000,-436.3750,19,153.06,1.58,23.84
34.158000,-429.1250,19,153.06,1.58,23.84
34.168000,-423.0000,19,153.06,1.58,23.84
34.178000,-416.0000,19,153.06,1.58,23.84
34.188000,-410.1250,19,153.06,1.58,23.84
34.198000,-402.7500,19,153.06,1.58,23.84
34.208000,-396.2500,19,153.06,1.58,23.84
34.218000,-391.3750,19,153.06,1.58,23.84
34.228000,-383.8750,19,153.06,1.58,23.84
34.238000,-377.1250,19,153.06,1.58,23.84
34.248000,-372.3750,19,153.06,1.58,23.84
34.258000,-366.7500,19,153.06,1.58,23.84
34.268000,-360.3750,19,153.06,1.58,23.84
34.278000,-353.7500,19,153.06,1.58,23.84
34.288000,-350.7500,19,153.06,1.58,23.84
34.298000,-343.2500,19,153.06,1.58,23.84
34.308000,-343.0000,19,153.06,1.58,23.84
34.318000,-344.8750,19,153.06,1.58,23.84
34.328000,-326.3750,19,153.06,1.58,23.84
34.338000,-324.1250,19,153.06,1.58,23.84
34.348000,-318.8750,19,153.06,1.58,23.84
34.358000,-309.7500,19,153.06,1.58,23.84
34.368000,-306.0000,19,153.06,1.58,23.84
34.378000,-300.2500,19,153.06,1.58,23.84
34.388000,-295.8750,19,153.06,1.58,23.84
34.398000,-289.2500,19,153.06,1.58,23.84
34.408000,-283.5000,19,153.06,1.58,23.84
34.418000,-280.1250,19,153.06,1.58,23.84
34.428000,-275.3750,19,153.06,1.58,23.84
34.438000,-271.1250,19,153.06,1.58,23.84
34.448000,-265.8750,19,153.06,1.58,23.84
34.458000,-260.7500,19,153.06,1.58,23.84
34.468000,-256.1250,19,153.06,1.58,23.84
34.478000,-252.2500,19,153.06,1.58,23.84
34.488000,-248.7500,19,153.06,1.58,23.84
34.498000,-243.8750,19,153.06,1.58,23.84
34.508000,-239.1250,19,153.06,1.58,23.84
34.518000,-235.1250,19,153.06,1.58,23.84
34.528000,-230.5000,19,153.06,1.58,23.84
34.538000,-226.7500,19,153.06,1.58,23.84
34.548000,-222.2500,19,153.06,1.58,23.84
34.558000,-219.0000,19,153.06,1.58,23.84
34.568000,-214.6250,19,153.06,1.58,23.84
34.578000,-211.2500,19,153.06,1.58,23.84
34.588000,-207.5000,19,153.06,1.58,23.84
34.598000,-201.1250,19,153.06,1.58,23.84
34.608000,-202.3750,19,153.06,1.58,23.84
34.618000,-195.7500,19,153.06,1.58,23.84
34.628000,-193.0000,19,153.06,1.58,23.84
34.638000,-188.0000,19,153.06,1.58,23.84
34.648000,-184.6250,19,153.06,1.58,23.84
34.658000,-181.5000,19,153.06,1.58,23.84
34.668000,-177.8750,19,153.06,1.58,23.84
34.678000,-174.7500,19,153.06,1.58,23.84
34.688000,-171.6250,19,153.06,1.58,23.84
34.698000,-167.6250,19,153.06,1.58,23.84
34.708000,-165.1250,19,153.06,1.58,23.84
34.718000,-160.6250,19,153.06,1.58,23.84
34.728000,-158.3750,19,153.06,1.58,23.84
34.738000,-155.6250,19,153.06,1.58,23.84
34.748000,-152.5000,19,153.06,1.58,23.84
34.758000,-149.3750,19,153.06,1.58,23.84
34.768000,-146.3750,19,153.06,1.58,23.84
34.778000,-143.6250,19,153.06,1.58,23.84
34.788000,-140.2500,19,153.06,1.58,23.84
34.798000,-137.5000,19,153.06,1.58,23.84
34.808000,-135.1250,19,153.06,1.58,23.84
34.818000,-132.3750,19,153.06,1.58,23.84
34.828000,-129.0000,19,153.06,1.58,23.84
34.838000,-127.0000,19,153.06,1.58,23.84
34.848000,-123.2500,19,153.06,1.58,23.84
34.858000,-120.7500,19,153.06,1.58,23.84
34.868000,-118.2500,19,153.06,1.58,23.84
34.878000,-116.2500,19,153.06,1.58,23.84
34.888000,-113.7500,19,153.06,1.58,23.84
34.898000,-112.6250,19,153.06,1.58,23.84
34.908000,-109.0000,19,153.06,1.58,23.84
34.918000,-107.2500,19,153.06,1.58,23.84
34.928000,-105.8750,19,153.06,1.58,23.84
34.938000,-102.5000,19,153.06,1.58,23.84
34.948000,-100.0000,19,153.06,1.58,23.84
34.958000,-98.3750,19,153.06,1.58,23.84
34.968000,-95.2500,19,153.06,1.58,23.84
34.978000,-101.1250,19,153.06,1.58,23.84
34.988000,-93.7500,19,153.06,1.58,23.84
34.998000,-99.3750,19,153.06,1.58,23.84
35.008000,-87.5000,19,153.06,1.58,23.84
35.018000,-84.0000,19,153.06,1.58,23.84
35.028000,-85.3750,19,153.06,1.58,23.84
35.038000,-66.7500,19,153.06,1.58,23.84
35.048000,-24.2500,19,153.06,1.58,23.84
35.058000,-65.7500,19,153.06,1.58,23.84
35.068000,-64.8750,19,153.06,1.58,23.84
35.078000,-68.2500,19,153.06,1.58,23.84
35.088000,-66.5000,19,153.06,1.58,23.84
35.098000,-65.2500,19,153.06,1.58,23.84
35.108000,-66.0000,19,153.06,1.58,23.84
35.118000,-65.1250,19,153.06,1.58,23.84
35.128000,-61.0000,19,153.06,1.58,23.84
35.138000,-61.0000,19,153.06,1.58,23.84
35.148000,-58.3750,19,153.06,1.58,23.84
35.158000,-57.6250,19,153.06,1.58,23.84
35.168000,-55.3750,19,153.06,1.58,23.84
35.178000,-55.6250,19,153.06,1.58,23.84
35.188000,-52.0000,19,153.06,1.58,23.84
35.198000,-51.1250,19,153.06,1.58,23.84
35.208000,-49.1250,19,153.06,1.58,23.84
35.218000,-49.3750,19,153.06,1.58,23.84
35.228000,-47.1250,19,153.06,1.58,23.84
35.238000,-46.0000,19,153.06,1.58,23.84
35.248000,-44.7500,19,153.06,1.58,23.84
35.258000,-43.2500,19,153.06,1.58,23.84
35.268000,-42.0000,19,153.06,1.58,23.84
35.278000,-39.8750,19,153.06,1.58,23.84
35.288000,-39.5000,19,153.06,1.58,23.84
35.298000,-38.3750,19,153.06,1.58,23.84
35.308000,-37.5000,19,153.06,1.58,23.84
35.318000,-35.7500,19,153.06,1.58,23.84
35.328000,-33.6250,19,153.06,1.58,23.84
35.338000,-32.8750,19,153.06,1.58,23.84
35.348000,-30.8750,19,153.06,1.58,23.84
35.358000,-29.0000,19,153.06,1.58,23.84
35.368000,-25.3750,19,153.06,1.58,23.84
35.378000,-22.1250,19,153.06,1.58,23.84
35.388000,-20.7500,19,153.06,1.58,23.84
35.398000,-16.5000,19,153.06,1.58,23.84
35.408000,-13.5000,19,153.06,1.58,23.84
35.418000,-7.1250,19,153.06,1.58,23.84
35.428000,-5.7500,19,153.06,1.58,23.84
35.438000,-5.1250,19,153.06,1.58,23.84
35.448000,-3.7500,19,153.06,1.58,23.84
35.458000,-2.1250,19,153.06,1.58,23.84
35.468000,-0.5000,19,153.06,1.58,23.84
35.478000,-0.8750,19,153.06,1.58,23.84
35.488000,-0.1250,19,153.06,1.58,23.84
35.498000,0.2500,19,153.06,1.58,23.84
35.508000,1.1250,19,153.06,1.58,23.84
35.518000,0.7500,19,153.06,1.58,23.84
35.528000,2.6250,19,153.06,1.58,23.84
35.538000,1.5000,19,153.06,1.58,23.84
35.548000,3.0000,19,153.06,1.58,23.84
35.558000,5.1250,19,153.06,1.58,23.84
35.568000,7.1250,19,153.06,1.58,23.84
35.578000,6.7500,19,153.06,1.58,23.84
35.588000,8.1250,19,153.06,1.58,23.84
35.598000,8.6250,19,153.06,1.58,23.84
35.608000,7.5000,19,153.06,1.58,23.84
35.618000,6.7500,19,153.06,1.58,23.84
35.628000,6.6250,19,153.06,1.58,23.84
35.638000,6.7500,19,153.06,1.58,23.84
35.648000,6.3750,19,153.06,1.58,23.84
35.658000,6.3750,19,153.06,1.58,23.84
35.668000,7.2500,19,153.06,1.58,23.84
35.678000,6.0000,19,153.06,1.58,23.84
35.688000,6.3750,19,153.06,1.58,23.84
35.698000,5.8750,19,153.06,1.58,23.84
35.708000,4.8750,19,153.06,1.58,23.84
35.718000,4.1250,19,153.06,1.58,23.84
35.728000,5.5000,19,153.06,1.58,23.84
35.738000,5.7500,19,153.06,1.58,23.84
35.748000,4.6250,19,153.06,1.58,23.84
35.758000,2.3750,19,153.06,1.58,23.84
35.768000,2.0000,19,153.06,1.58,23.84
35.778000,0.6250,19,153.06,1.58,23.84
35.788000,-1.7500,19,153.06,1.58,23.84
35.798000,-2.3750,19,153.06,1.58,23.84
35.808000,-2.1250,19,153.06,1.58,23.84
35.818000,-2.7500,19,153.06,1.58,23.84
35.828000,-3.1250,19,153.06,1.58,23.84
35.838000,-9.1250,19,153.06,1.58,23.84
35.848000,-9.3750,19,153.06,1.58,23.84
35.858000,-10.1250,19,153.06,1.58,23.84
35.868000,-10.0000,19,153.06,1.58,23.84
35.878000,-10.8750,19,153.06,1.58,23.84
35.888000,-11.8750,19,153.06,1.58,23.84
35.898000,-11.6250,19,153.06,1.58,23.84
35.908000,-13.7500,19,153.06,1.58,23.84
35.918000,-13.0000,19,153.06,1.58,23.84
35.928000,-13.7500,19,153.06,1.58,23.84
35.938000,-14.8750,19,153.06,1.58,23.84
35.948000,-15.6250,19,153.06,1.58,23.84
35.958000,-17.8750,19,153.06,1.58,23.84
35.968000,-16.0000,19,153.06,1.58,23.84
35.978000,-18.1250,19,153.06,1.58,23.84
35.988000,-18.2500,19,153.06,1.58,23.84
35.998000,-18.3750,19,153.06,1.58,23.84
36.008000,-18.5000,19,153.06,1.58,23.84
36.018000,-19.0000,19,153.06,1.58,23.84
36.028000,-19.2500,19,153.06,1.58,23.84
36.038000,-20.3750,19,153.06,1.58,23.84
36.048000,-21.3750,19,153.06,1.58,23.84
36.058000,-21.2500,19,153.06,1.58,23.84
36.068000,-22.0000,19,153.06,1.58,23.84
36.078000,-23.8750,19,153.06,1.58,23.84
36.088000,-24.0000,19,153.06,1.58,23.84
36.098000,-24.1250,19,153.06,1.58,23.84
36.108000,-24.7500,19,153.06,1.58,23.84
36.118000,-26.5000,19,153.06,1.58,23.84
36.128000,-30.1250,19,153.06,1.58,23.84
36.138000,-30.2500,19,153.06,1.58,23.84
36.148000,-31.5000,19,153.06,1.58,23.84
36.158000,-30.8750,19,153.06,1.58,23.84
36.168000,-32.1250,19,153.06,1.58,23.84
36.178000,-33.0000,19,153.06,1.58,23.84
36.188000,-32.6250,19,153.06,1.58,23.84
36.198000,-33.7500,19,153.06,1.58,23.84
36.208000,-34.0000,19,153.06,1.58,23.84
36.218000,-35.6250,19,153.06,1.58,23.84
36.228000,-35.8750,19,153.06,1.58,23.84
36.238000,-36.7500,19,153.06,1.58,23.84
36.248000,-36.3750,19,153.06,1.58,23.84
36.258000,-36.5000,19,153.06,1.58,23.84
36.268000,-39.2500,19,153.06,1.58,23.84
36.278000,-38.3750,19,153.06,1.58,23.84
36.288000,-42.0000,19,153.06,1.58,23.84
36.298000,-42.0000,19,153.06,1.58,23.84
36.308000,-42.5000,19,153.06,1.58,23.84
36.318000,-43.1250,19,153.06,1.58,23.84
36.328000,-43.5000,19,153.06,1.58,23.84
36.338000,-44.2500,19,153.06,1.58,23.84
36.348000,-44.3750,19,153.06,1.58,23.84
36.358000,-45.2500,19,153.06,1.58,23.84
36.368000,-45.1250,19,153.06,1.58,23.84
36.378000,-45.5000,19,153.06,1.58,23.84
36.388000,-46.0000,19,153.06,1.58,23.84
36.398000,-48.7500,19,153.06,1.58,23.84
36.408000,-49.3750,19,153.06,1.58,23.84
36.418000,-50.3750,19,153.06,1.58,23.84
36.428000,-51.1250,19,153.06,1.58,23.84
36.438000,-52.1250,19,153.06,1.58,23.84
36.448000,-51.6250,19,153.06,1.58,23.84
36.458000,-52.3750,19,153.06,1.58,23.84
36.468000,-51.6250,19,153.06,1.58,23.84
36.478000,-52.0000,19,153.06,1.58,23.84
36.488000,-53.3750,19,153.06,1.58,23.84
36.498000,-55.2500,19,153.06,1.58,23.84
36.508000,-56.3750,19,153.06,1.58,23.84
36.518000,-57.8750,19,153.06,1.58,23.84
36.528000,-57.0000,19,153.06,1.58,23.84
36.538000,-58.2500,19,153.06,1.58,23.84
36.548000,-56.6250,19,153.06,1.58,23.84
36.558000,-56.1250,19,153.06,1.58,23.84
36.568000,-57.0000,19,153.06,1.58,23.84
36.578000,-57.8750,19,153.06,1.58,23.84
36.588000,-58.5000,19,153.06,1.58,23.84
36.598000,-58.6250,19,153.06,1.58,23.84
36.608000,-61.3750,19,153.06,1.58,23.84
36.618000,-61.5000,19,153.06,1.58,23.84
36.628000,-62.0000,19,153.06,1.58,23.84
36.638000,-62.8750,19,153.06,1.58,23.84
36.648000,-59.5000,19,153.06,1.58,23.84
36.658000,-61.7500,19,153.06,1.58,23.84
36.668000,-58.8750,19,153.06,1.58,23.84
36.678000,-64.0000,19,153.06,1.58,23.84
36.688000,-62.3750,19,153.06,1.58,23.84
36.698000,-61.7500,19,153.06,1.58,23.84
36.708000,-61.0000,19,153.06,1.58,23.84
36.718000,-64.1250,19,153.06,1.58,23.84
36.728000,-63.8750,19,153.06,1.58,23.84
36.738000,-65.0000,19,153.06,1.58,23.84
36.748000,-63.7500,19,153.06,1.58,23.84
36.758000,-64.8750,19,153.06,1.58,23.84
36.768000,-61.7500,19,153.06,1.58,23.84
36.778000,-65.7500,19,153.06,1.58,23.84
36.788000,-60.6250,19,153.06,1.58,23.84
36.798000,-64.0000,19,153.06,1.58,23.84
36.808000,-68.7500,19,153.06,1.58,23.84
36.818000,-60.3750,19,153.06,1.58,23.84
36.828000,-71.6250,19,153.06,1.58,23.84
36.838000,-72.6250,19,153.06,1.58,23.84
36.848000,-68.3750,19,153.06,1.58,23.84
36.858000,-54.1250,19,153.06,1.58,23.84
36.868000,-61.1250,19,153.06,1.58,23.84
36.878000,-60.5000,19,153.06,1.58,23.84
36.888000,-63.3750,19,153.06,1.58,23.84
36.898000,-66.1250,19,153.06,1.58,23.84
36.908000,-71.6250,19,153.06,1.58,23.84
36.918000,-65.7500,19,153.06,1.58,23.84
36.928000,-61.0000,19,153.06,1.58,23.84
36.938000,-46.5000,19,153.06,1.58,23.84
36.948000,-42.5000,19,153.06,1.58,23.84
36.958000,-37.7500,19,153.06,1.58,23.84
36.968000,-73.8750,19,153.06,1.58,23.84
36.978000,-6.1250,19,153.06,1.58,23.84
36.988000,-58.1250,19,153.06,1.58,23.84
36.998000,-28.7500,19,153.06,1.58,23.84
37.008000,-60.3750,19,153.06,1.58,23.84
37.018000,-79.3750,19,153.06,1.58,23.84
37.028000,-52.3750,19,153.06,1.58,23.84
37.038000,-11.5000,19,153.06,1.58,23.84
37.048000,-22.5000,19,153.06,1.58,23.84
37.058000,-85.2500,19,153.06,1.58,23.84
37.068000,-52.8750,19,153.06,1.58,23.84
37.078000,-63.1250,19,153.06,1.58,23.84
37.088000,-52.3750,19,153.06,1.58,23.84
37.098000,-30.2500,19,153.06,1.58,23.84
37.108000,-53.8750,19,153.06,1.58,23.84
37.118000,-68.3750,19,153.06,1.58,23.84
37.128000,-47.7500,19,153.06,1.58,23.84
37.138000,-52.6250,19,153.06,1.58,23.84
37.148000,-65.1250,19,153.06,1.58,23.84
37.158000,-63.8750,19,153.06,1.58,23.84
37.168000,-35.5000,19,153.06,1.58,23.84
37.178000,-64.2500,19,153.06,1.58,23.84
37.188000,-27.2500,19,153.06,1.58,23.84
37.198000,-72.0000,19,153.06,1.58,23.84
37.208000,-6.5000,19,153.06,1.58,23.84
37.218000,-59.5000,19,153.06,1.58,23.84
37.228000,-51.3750,19,153.06,1.58,23.84
37.238000,-80.5000,19,153.06,1.58,23.84
37.248000,-91.2500,19,153.06,1.58,23.84
37.258000,-82.8750,19,153.06,1.58,23.84
37.268000,-80.3750,19,153.06,1.58,23.84
37.278000,-74.1250,19,153.06,1.58,23.84
37.288000,-87.3750,19,153.06,1.58,23.84
37.298000,-85.6250,19,153.06,1.58,23.84
37.308000,-113.5000,19,153.06,1.58,23.84
37.318000,-110.1250,19,153.06,1.58,23.84
37.328000,-91.2500,19,153.06,1.58,23.84
37.338000,-89.7500,19,153.06,1.58,23.84
37.348000,-78.7500,19,153.06,1.58,23.84
37.358000,-91.3750,19,153.06,1.58,23.84
37.368000,-91.3750,19,153.06,1.58,23.84
37.378000,-102.6250,19,153.06,1.58,23.84
37.388000,-78.1250,19,153.06,1.58,23.84
37.398000,-96.5000,19,153.06,1.58,23.84
37.408000,-102.7500,19,153.06,1.58,23.84
37.418000,-102.5000,19,153.06,1.58,23.84
37.428000,-86.1250,19,153.06,1.58,23.84
37.438000,-91.8750,19,153.06,1.58,23.84
37.448000,-79.2500,19,153.06,1.58,23.84
37.458000,-89.5000,19,153.06,1.58,23.84
37.468000,-82.5000,19,153.06,1.58,23.84
37.478000,-79.1250,19,153.06,1.58,23.84
37.488000,-90.2500,19,153.06,1.58,23.84
37.498000,-91.2500,19,153.06,1.58,23.84
37.508000,-68.1250,21,153.06,-1.59,11.62
37.518000,-93.8750,21,153.06,-1.59,11.62
37.528000,-85.5000,21,153.06,-1.59,11.62
37.538000,-71.5000,21,153.06,-1.59,11.62
37.548000,-73.2500,21,153.06,-1.59,11.62
37.558000,-97.2500,21,153.06,-1.59,11.62
37.568000,-88.0000,21,153.06,-1.59,11.62
37.578000,-72.7500,21,153.06,-1.59,11.62
37.588000,-84.8750,21,153.06,-1.59,11.62
37.598000,-85.2500,21,153.06,-1.59,11.62
37.608000,-91.3750,21,153.06,-1.59,11.62
37.618000,-76.0000,21,153.06,-1.59,11.62
37.628000,-77.1250,21,153.06,-1.59,11.62
37.638000,-88.7500,21,153.06,-1.59,11.62
37.648000,-74.2500,21,153.06,-1.59,11.62
37.658000,-81.1250,21,153.06,-1.59,11.62
37.668000,-64.0000,21,153.06,-1.59,11.62
37.678000,-81.1250,21,153.06,-1.59,11.62
37.688000,-65.5000,21,153.06,-1.59,11.62
37.698000,-87.6250,21,153.06,-1.59,11.62
37.708000,-72.8750,21,153.06,-1.59,11.62
37.718000,-84.2500,21,153.06,-1.59,11.62
37.728000,-85.0000,21,153.06,-1.59,11.62
37.738000,-82.7500,21,153.06,-1.59,11.62
37.748000,-82.1250,21,153.06,-1.59,11.62
37.758000,-94.7500,21,153.06,-1.59,11.62
37.768000,-87.7500,21,153.06,-1.59,11.62
37.778000,-81.2500,21,153.06,-1.59,11.62
37.788000,-91.3750,21,153.06,-1.59,11.62
37.798000,-70.8750,21,153.06,-1.59,11.62
37.808000,-72.1250,21,153.06,-1.59,11.62
37.818000,-74.8750,21,153.06,-1.59,11.62
37.828000,-76.5000,21,153.06,-1.59,11.62
37.838000,-87.6250,21,153.06,-1.59,11.62
37.848000,-75.0000,21,153.06,-1.59,11.62
37.858000,-78.3750,21,153.06,-1.59,11.62
37.868000,-75.2500,21,153.06,-1.59,11.62
37.878000,-86.1250,21,153.06,-1.59,11.62
37.888000,-86.5000,21,153.06,-1.59,11.62
37.898000,-78.6250,21,153.06,-1.59,11.62
37.908000,-87.8750,21,153.06,-1.59,11.62
37.918000,-81.2500,21,153.06,-1.59,11.62
37.928000,-70.8750,21,153.06,-1.59,11.62
37.938000,-87.5000,21,153.06,-1.59,11.62
37.948000,-86.8750,21,153.06,-1.59,11.62
37.958000,-94.0000,21,153.06,-1.59,11.62
37.968000,-83.3750,21,153.06,-1.59,11.62
37.978000,-92.1250,21,153.06,-1.59,11.62
37.988000,-92.3750,21,153.06,-1.59,11.62
37.998000,-92.1250,21,153.06,-1.59,11.62
38.008000,-83.7500,21,153.06,-1.59,11.62
38.018000,-90.1250,21,153.06,-1.59,11.62
38.028000,-102.3750,21,153.06,-1.59,11.62
38.038000,-84.1250,21,153.06,-1.59,11.62
38.048000,-97.6250,21,153.06,-1.59,11.62
38.058000,-85.3750,21,153.06,-1.59,11.62
38.068000,-85.0000,21,153.06,-1.59,11.62
38.078000,-85.2500,21,153.06,-1.59,11.62
38.088000,-70.7500,21,153.06,-1.59,11.62
38.098000,-95.2500,21,153.06,-1.59,11.62
38.108000,-81.8750,21,153.06,-1.59,11.62
38.118000,-80.3750,21,153.06,-1.59,11.62
38.128000,-83.0000,21,153.06,-1.59,11.62
38.138000,-85.7500,21,153.06,-1.59,11.62
38.148000,-83.3750,21,153.06,-1.59,11.62
38.158000,-89.3750,21,153.06,-1.59,11.62
38.168000,-86.2500,21,153.06,-1.59,11.62
38.178000,-78.1250,21,153.06,-1.59,11.62
38.188000,-80.1250,21,153.06,-1.59,11.62
38.198000,-86.1250,21,153.06,-1.59,11.62
38.208000,-81.0000,21,153.06,-1.59,11.62
38.218000,-88.0000,21,153.06,-1.59,11.62
38.228000,-85.6250,21,153.06,-1.59,11.62
38.238000,-74.5000,21,153.06,-1.59,11.62
38.248000,-77.7500,21,153.06,-1.59,11.62
38.258000,-76.0000,21,153.06,-1.59,11.62
38.268000,-83.6250,21,153.06,-1.59,11.62
38.278000,-82.2500,21,153.06,-1.59,11.62
38.288000,-81.1250,21,153.06,-1.59,11.62
38.298000,-87.5000,21,153.06,-1.59,11.62
38.308000,-85.1250,21,153.06,-1.59,11.62
38.318000,-91.7500,21,153.06,-1.59,11.62
38.328000,-81.3750,21,153.06,-1.59,11.62
38.338000,-83.1250,21,153.06,-1.59,11.62
38.348000,-84.5000,21,153.06,-1.59,11.62
38.358000,-81.2500,21,153.06,-1.59,11.62
38.368000,-81.0000,21,153.06,-1.59,11.62
38.378000,-81.1250,21,153.06,-1.59,11.62
38.388000,-87.7500,21,153.06,-1.59,11.62
38.398000,-85.1250,21,153.06,-1.59,11.62
38.408000,-83.8750,21,153.06,-1.59,11.62
38.418000,-80.7500,21,153.06,-1.59,11.62
38.428000,-84.6250,21,153.06,-1.59,11.62
38.438000,-86.1250,21,153.06,-1.59,11.62
38.448000,-81.0000,21,153.06,-1.59,11.62
38.458000,-89.0000,21,153.06,-1.59,11.62
38.468000,-85.6250,21,153.06,-1.59,11.62
38.478000,-84.1250,21,153.06,-1.59,11.62
38.488000,-85.8750,21,153.06,-1.59,11.62
38.498000,-88.0000,21,153.06,-1.59,11.62
38.508000,-80.2500,21,153.06,-1.59,11.62
38.518000,-79.1250,21,153.06,-1.59,11.62
38.528000,-81.0000,21,153.06,-1.59,11.62
38.538000,-86.8750,21,153.06,-1.59,11.62
38.548000,-86.2500,21,153.06,-1.59,11.62
38.558000,-83.3750,21,153.06,-1.59,11.62
38.568000,-83.6250,21,153.06,-1.59,11.62
38.578000,-85.7500,21,153.06,-1.59,11.62
38.588000,-90.5000,21,153.06,-1.59,11.62
38.598000,-79.2500,21,153.06,-1.59,11.62
38.608000,-82.7500,21,153.06,-1.59,11.62
38.618000,-88.6250,21,153.06,-1.59,11.62
38.628000,-81.3750,21,153.06,-1.59,11.62
38.638000,-83.1250,21,153.06,-1.59,11.62
