timestamp_s,filtered_mV,loop,hr_bpm,snr_wb_db,snr_qrs_db
0.328000,-84.8750,0,,,
0.338000,-75.3750,0,,,
0.348000,-69.1250,0,,,
0.358000,-87.3750,0,,,
0.368000,-97.1250,0,,,
0.378000,-87.3750,0,,,
0.388000,-84.7500,0,,,
0.398000,-84.6250,0,,,
0.408000,-84.3750,0,,,
0.418000,-83.7500,0,,,
0.428000,-84.0000,0,,,
0.438000,-82.8750,0,,,
0.448000,-83.0000,0,,,
0.458000,-82.0000,0,,,
0.468000,-82.0000,0,,,
0.478000,-79.7500,0,,,
0.488000,-79.7500,0,,,
0.498000,-77.2500,0,,,
0.508000,-77.5000,0,,,
0.518000,-74.7500,0,,,
0.528000,-75.6250,0,,,
0.538000,-74.1250,0,,,
0.548000,-75.6250,0,,,
0.558000,-74.7500,0,,,
0.568000,-78.2500,0,,,
0.578000,-79.5000,0,,,
0.588000,-83.7500,0,,,
0.598000,-83.7500,0,,,
0.608000,-87.0000,0,,,
0.618000,-85.6250,0,,,
0.628000,-88.1250,0,,,
0.638000,-86.0000,0,,,
0.648000,-88.5000,0,,,
0.658000,-86.3750,0,,,
0.668000,-88.5000,0,,,
0.678000,-86.1250,0,,,
0.688000,-88.3750,0,,,
0.698000,-86.0000,0,,,
0.708000,-87.8750,0,,,
0.718000,-86.0000,0,,,
0.728000,-87.0000,0,,,
0.738000,-85.5000,0,,,
0.748000,-87.2500,0,,,
0.758000,-84.8750,0,,,
0.768000,-86.7500,0,,,
0.778000,-85.2500,0,,,
0.788000,-86.7500,0,,,
0.798000,-85.5000,0,,,
0.808000,-87.3750,0,,,
0.818000,-85.6250,0,,,
0.828000,-87.1250,0,,,
0.838000,-85.6250,0,,,
0.848000,-87.5000,0,,,
0.858000,-85.7500,0,,,
0.868000,-86.7500,0,,,
0.878000,-84.8750,0,,,
0.888000,-86.5000,0,,,
0.898000,-84.0000,0,,,
0.908000,-85.8750,0,,,
0.918000,-85.5000,0,,,
0.928000,-87.5000,0,,,
0.938000,-87.2500,0,,,
0.948000,-87.8750,0,,,
0.958000,-87.0000,0,,,
0.968000,-88.1250,0,,,
0.978000,-87.7500,0,,,
0.988000,-88.2500,0,,,
0.998000,-87.3750,0,,,
1.008000,-87.7500,0,,,
1.018000,-87.0000,0,,,
1.028000,-87.1250,0,,,
1.038000,-85.1250,0,,,
1.048000,-75.1250,0,,,
1.058000,-69.2500,0,,,
1.068000,-84.5000,0,,,
1.078000,-99.8750,0,,,
1.088000,-89.5000,0,,,
1.098000,-84.7500,0,,,
1.108000,-84.3750,0,,,
1.118000,-84.1250,0,,,
1.128000,-84.0000,0,,,
1.138000,-83.7500,0,,,
1.148000,-82.6250,0,,,
1.158000,-82.5000,0,,,
1.168000,-81.7500,0,,,
1.178000,-81.5000,0,,,
1.188000,-80.1250,0,,,
1.198000,-79.5000,0,,,
1.208000,-76.6250,0,,,
1.218000,-77.1250,0,,,
1.228000,-74.1250,0,,,
1.238000,-74.6250,0,,,
1.248000,-72.8750,0,,,
1.258000,-74.6250,0,,,
1.268000,-73.8750,0,,,
1.278000,-78.5000,0,,,
1.288000,-79.1250,0,,,
1.298000,-83.6250,0,,,
1.308000,-83.6250,0,,,
1.318000,-87.0000,0,,,
1.328000,-85.5000,0,,,
1.338000,-88.2500,0,,,
1.348000,-86.1250,0,,,
1.358000,-88.5000,0,,,
1.368000,-86.5000,0,,,
1.378000,-88.3750,0,,,
1.388000,-86.5000,0,,,
1.398000,-88.2500,0,,,
1.408000,-85.8750,0,,,
1.418000,-87.7500,0,,,
1.428000,-85.5000,0,,,
1.438000,-87.6250,0,,,
1.448000,-85.7500,0,,,
1.458000,-87.2500,0,,,
1.468000,-85.2500,0,,,
1.478000,-86.8750,0,,,
1.488000,-85.2500,0,,,
1.498000,-86.8750,0,,,
1.508000,-85.8750,0,,,
1.518000,-87.2500,0,,,
1.528000,-86.2500,0,,,
1.538000,-87.1250,0,,,
1.548000,-86.0000,0,,,
1.558000,-87.2500,0,,,
1.568000,-86.5000,0,,,
1.578000,-86.7500,0,,,
1.588000,-86.1250,0,,,
1.598000,-85.7500,0,,,
1.608000,-85.5000,0,,,
1.618000,-85.6250,0,,,
1.628000,-85.2500,0,,,
1.638000,-85.8750,0,,,
1.648000,-86.1250,0,,,
1.658000,-86.8750,0,,,
1.668000,-87.5000,0,,,
1.678000,-88.1250,0,,,
1.688000,-88.2500,0,,,
1.698000,-87.7500,0,,,
1.708000,-88.7500,0,,,
1.718000,-86.8750,0,,,
1.728000,-88.5000,0,,,
1.738000,-87.0000,0,,,
1.748000,-88.7500,0,,,
1.758000,-85.6250,0,,,
1.768000,-84.3750,0,,,
1.778000,-72.1250,0,,,
1.788000,-71.5000,0,,,
1.798000,-90.1250,0,,,
1.808000,-98.3750,0,,,
1.818000,-86.0000,0,,,
1.828000,-86.1250,0,,,
1.838000,-83.7500,0,,,
1.848000,-85.3750,0,,,
1.858000,-82.8750,0,,,
1.868000,-84.2500,0,,,
1.878000,-82.0000,0,,,
1.888000,-83.3750,0,,,
1.898000,-80.6250,0,,,
1.908000,-81.7500,0,,,
1.918000,-79.1250,0,,,
1.928000,-79.8750,0,,,
1.938000,-76.5000,0,,,
1.948000,-77.2500,0,,,
1.958000,-74.0000,0,,,
1.968000,-74.2500,0,,,
1.978000,-73.1250,0,,,
1.988000,-74.6250,0,,,
1.998000,-75.1250,0,,,
2.008000,-79.0000,0,,,
2.018000,-81.3750,0,,,
2.028000,-84.6250,0,,,
2.038000,-85.8750,0,,,
2.048000,-86.6250,0,,,
2.058000,-87.6250,0,,,
2.068000,-88.1250,0,,,
2.078000,-87.8750,0,,,
2.088000,-88.0000,0,,,
2.098000,-88.0000,0,,,
2.108000,-87.5000,0,,,
2.118000,-88.5000,0,,,
2.128000,-87.6250,0,,,
2.138000,-88.1250,0,,,
2.148000,-87.3750,0,,,
2.158000,-87.8750,0,,,
2.168000,-86.1250,0,,,
2.178000,-87.7500,0,,,
2.188000,-86.0000,0,,,
2.198000,-87.5000,0,,,
2.208000,-85.3750,0,,,
2.218000,-87.8750,0,,,
2.228000,-85.3750,0,,,
2.238000,-87.8750,0,,,
2.248000,-86.3750,0,,,
2.258000,-88.7500,0,,,
2.268000,-86.0000,0,,,
2.278000,-88.8750,0,,,
2.288000,-86.6250,0,,,
2.298000,-88.8750,0,,,
2.308000,-86.8750,0,,,
2.318000,-88.6250,0,,,
2.328000,-86.2500,0,,,
2.338000,-87.5000,0,,,
2.348000,-85.8750,0,,,
2.358000,-87.3750,0,,,
2.368000,-84.8750,0,,,
2.378000,-88.2500,0,,,
2.388000,-87.0000,0,,,
2.398000,-89.7500,0,,,
2.408000,-88.1250,0,,,
2.418000,-89.2500,0,,,
2.428000,-88.0000,0,,,
2.438000,-89.8750,0,,,
2.448000,-88.6250,0,,,
2.458000,-89.6250,0,,,
2.468000,-88.7500,0,,,
2.478000,-89.6250,0,,,
2.488000,-88.2500,0,,,
2.498000,-86.8750,0,,,
2.508000,-78.5000,0,,,
2.518000,-74.0000,0,,,
2.528000,-77.7500,0,,,
2.538000,-100.2500,0,,,
2.548000,-92.7500,0,,,
2.558000,-86.2500,0,,,
2.568000,-85.1250,0,,,
2.578000,-85.5000,0,,,
2.588000,-86.6250,0,,,
2.598000,-86.2500,0,,,
2.608000,-86.7500,0,,,
2.618000,-85.5000,0,,,
2.628000,-84.6250,0,,,
2.638000,-84.6250,0,,,
2.648000,-84.8750,0,,,
2.658000,-82.8750,0,,,
2.668000,-82.0000,0,,,
2.678000,-81.3750,0,,,
2.688000,-80.5000,0,,,
2.698000,-79.1250,0,,,
2.708000,-78.6250,0,,,
2.718000,-78.3750,0,,,
2.728000,-79.3750,0,,,
2.738000,-81.0000,0,,,
2.748000,-83.6250,0,,,
2.758000,-86.8750,0,,,
2.768000,-88.1250,0,,,
2.778000,-90.1250,0,,,
2.788000,-91.2500,0,,,
2.798000,-91.2500,0,,,
2.808000,-90.6250,0,,,
2.818000,-91.6250,0,,,
2.828000,-91.0000,0,,,
2.838000,-91.8750,0,,,
2.848000,-92.1250,0,,,
2.858000,-91.5000,0,,,
2.868000,-92.2500,0,,,
2.878000,-91.1250,0,,,
2.888000,-90.7500,0,,,
2.898000,-91.1250,0,,,
2.908000,-90.2500,0,,,
2.918000,-90.5000,0,,,
2.928000,-90.1250,0,,,
2.938000,-90.1250,0,,,
2.948000,-90.5000,0,,,
2.958000,-90.5000,0,,,
2.968000,-90.1250,0,,,
2.978000,-91.0000,0,,,
2.988000,-90.6250,0,,,
2.998000,-90.3750,0,,,
3.008000,-90.2500,0,,,
3.018000,-91.3750,0,,,
3.028000,-90.0000,0,,,
3.038000,-90.3750,0,,,
3.048000,-89.1250,0,,,
3.058000,-89.6250,0,,,
3.068000,-88.5000,0,,,
3.078000,-89.1250,0,,,
3.088000,-90.1250,0,,,
3.098000,-89.7500,0,,,
3.108000,-91.2500,0,,,
3.118000,-91.2500,0,,,
3.128000,-90.7500,0,,,
3.138000,-90.7500,0,,,
3.148000,-91.0000,0,,,
3.158000,-89.5000,0,,,
3.168000,-90.2500,0,,,
3.178000,-91.1250,0,,,
3.188000,-86.6250,0,,,
3.198000,-86.1250,0,,,
3.208000,-80.0000,0,,,
3.218000,-80.2500,0,,,
3.228000,-74.5000,0,,,
3.238000,-97.1250,0,,,
3.248000,-75.6250,0,,,
3.258000,-88.2500,0,,,
3.268000,-84.0000,0,,,
3.278000,-84.5000,0,,,
3.288000,-86.1250,0,,,
3.298000,-85.5000,0,,,
3.308000,-85.1250,0,,,
3.318000,-86.3750,0,,,
3.328000,-85.3750,0,,,
3.338000,-84.1250,0,,,
3.348000,-84.1250,0,,,
3.358000,-82.7500,0,,,
3.368000,-82.5000,0,,,
3.378000,-79.6250,0,,,
3.388000,-80.6250,0,,,
3.398000,-76.8750,0,,,
3.408000,-79.1250,0,,,
3.418000,-77.3750,0,,,
3.428000,-79.5000,0,,,
3.438000,-79.3750,0,,,
3.448000,-83.8750,0,,,
3.458000,-83.6250,0,,,
3.468000,-87.6250,0,,,
3.478000,-85.8750,0,,,
3.488000,-89.1250,0,,,
3.498000,-87.0000,0,,,
3.508000,-89.6250,0,,,
3.518000,-87.0000,0,,,
3.528000,-89.3750,0,,,
3.538000,-88.0000,0,,,
3.548000,-90.1250,0,,,
3.558000,-87.0000,0,,,
3.568000,-89.3750,0,,,
3.578000,-87.7500,0,,,
3.588000,-89.0000,0,,,
3.598000,-87.6250,0,,,
3.608000,-88.6250,0,,,
3.618000,-86.8750,0,,,
3.628000,-87.8750,0,,,
3.638000,-86.7500,0,,,
3.648000,-87.8750,0,,,
3.658000,-86.6250,0,,,
3.668000,-87.6250,0,,,
3.678000,-86.7500,0,,,
3.688000,-87.7500,0,,,
3.698000,-87.1250,0,,,
3.708000,-87.3750,0,,,
3.718000,-86.1250,0,,,
3.728000,-86.5000,0,,,
3.738000,-86.0000,0,,,
3.748000,-85.8750,0,,,
3.758000,-87.0000,0,,,
3.768000,-87.1250,0,,,
3.778000,-88.0000,0,,,
3.788000,-87.5000,0,,,
3.798000,-88.1250,0,,,
3.808000,-87.3750,0,,,
3.818000,-88.8750,0,,,
3.828000,-87.5000,0,,,
3.838000,-88.5000,0,,,
3.848000,-86.7500,0,,,
3.858000,-89.0000,0,,,
3.868000,-86.3750,0,,,
3.878000,-86.5000,0,,,
3.888000,-78.1250,0,,,
3.898000,-76.3750,0,,,
3.908000,-77.0000,0,,,
3.918000,-97.7500,0,,,
3.928000,-89.2500,0,,,
3.938000,-84.8750,0,,,
3.948000,-84.2500,0,,,
3.958000,-82.5000,0,,,
3.968000,-80.7500,0,,,
3.978000,-76.3750,0,,,
3.988000,-79.1250,0,,,
3.998000,-82.8750,0,,,
4.008000,-84.8750,0,,,
4.018000,-86.1250,0,,,
4.028000,-85.6250,0,,,
4.038000,-86.1250,0,,,
4.048000,-87.5000,0,,,
4.058000,-84.3750,0,,,
4.068000,-84.6250,0,,,
4.078000,-86.3750,0,,,
4.088000,-84.6250,0,,,
4.098000,-86.1250,0,,,
4.108000,-86.3750,0,,,
4.118000,-83.5000,0,,,
4.128000,-84.0000,0,,,
4.138000,-86.1250,0,,,
4.148000,-87.2500,0,,,
4.158000,-85.5000,0,,,
4.168000,-88.2500,0,,,
4.178000,-85.5000,0,,,
4.188000,-88.0000,0,,,
4.198000,-85.6250,0,,,
4.208000,-87.3750,0,,,
4.218000,-84.2500,0,,,
4.228000,-90.8750,0,,,
4.238000,-85.0000,0,,,
4.248000,-81.2500,0,,,
4.258000,-77.6250,0,,,
4.268000,-75.6250,0,,,
4.278000,-78.8750,0,,,
4.288000,-85.1250,0,,,
4.298000,-86.5000,0,,,
4.308000,-85.3750,0,,,
4.318000,-85.2500,0,,,
4.328000,-85.3750,0,,,
4.338000,-86.3750,0,,,
4.348000,-85.5000,0,,,
4.358000,-83.2500,0,,,
4.368000,-84.2500,0,,,
4.378000,-85.7500,0,,,
4.388000,-86.2500,0,,,
4.398000,-87.5000,0,,,
4.408000,-86.0000,0,,,
4.418000,-87.6250,0,,,
4.428000,-86.1250,0,,,
4.438000,-87.8750,0,,,
4.448000,-86.0000,0,,,
4.458000,-86.2500,0,,,
4.468000,-81.3750,0,,,
4.478000,-74.7500,0,,,
4.488000,-69.7500,0,,,
4.498000,-84.5000,0,,,
4.508000,-83.1250,0,,,
4.518000,-82.2500,0,,,
4.528000,-78.2500,0,,,
4.538000,-74.5000,0,,,
4.548000,-80.1250,0,,,
4.558000,-85.5000,0,,,
4.568000,-86.0000,0,,,
4.578000,-85.6250,0,,,
4.588000,-86.3750,0,,,
4.598000,-86.8750,0,,,
4.608000,-86.3750,0,,,
4.618000,-85.1250,0,,,
4.628000,-85.3750,0,,,
4.638000,-86.2500,0,,,
4.648000,-86.0000,0,,,
4.658000,-85.1250,0,,,
4.668000,-86.3750,0,,,
4.678000,-87.5000,0,,,
4.688000,-86.5000,0,,,
4.698000,-87.8750,0,,,
4.708000,-87.6250,0,,,
4.718000,-86.2500,0,,,
4.728000,-73.0000,0,,,
4.738000,-87.7500,0,,,
4.748000,-79.8750,0,,,
4.758000,-74.7500,0,,,
4.768000,-86.8750,0,,,
4.778000,-88.1250,0,,,
4.788000,-85.3750,0,,,
4.798000,-86.5000,0,,,
4.808000,-86.1250,0,,,
4.818000,-86.2500,0,,,
4.828000,-87.3750,0,,,
4.838000,-85.7500,0,,,
4.848000,-87.6250,0,,,
4.858000,-87.5000,0,,,
4.868000,-87.7500,0,,,
4.878000,-87.5000,0,,,
4.888000,-86.2500,0,,,
4.898000,-84.5000,0,,,
4.908000,-84.5000,0,,,
4.918000,-86.2500,0,,,
4.928000,-88.8750,0,,,
4.938000,-88.5000,0,,,
4.948000,-87.5000,0,,,
4.958000,-95.1250,0,,,
4.968000,-84.1250,0,,,
4.978000,-83.3750,0,,,
4.988000,-81.2500,0,,,
4.998000,-82.5000,0,,,
5.008000,-80.3750,0,,,
5.018000,-80.6250,0,,,
5.028000,-77.8750,0,,,
5.038000,-78.6250,0,,,
5.048000,-75.1250,0,,,
5.058000,-81.6250,0,,,
5.068000,-84.1250,0,,,
5.078000,-86.1250,0,,,
5.088000,-86.3750,0,,,
5.098000,-86.8750,0,,,
5.108000,-87.0000,0,,,
5.118000,-87.7500,0,,,
5.128000,-86.2500,0,,,
5.138000,-87.5000,0,,,
5.148000,-87.0000,0,,,
5.158000,-86.7500,0,,,
5.168000,-87.6250,0,,,
5.178000,-88.1250,0,,,
5.188000,-87.6250,0,,,
5.198000,-86.7500,0,,,
5.208000,-94.2500,0,,,
5.218000,-85.1250,0,,,
5.228000,-85.0000,0,,,
5.238000,-83.8750,0,,,
5.248000,-85.3750,0,,,
5.258000,-79.1250,0,,,
5.268000,-74.6250,0,,,
5.278000,-87.0000,0,,,
5.288000,-88.1250,0,,,
5.298000,-86.6250,0,,,
5.308000,-87.2500,0,,,
5.318000,-85.8750,0,,,
5.328000,-85.5000,0,,,
5.338000,-86.6250,0,,,
5.348000,-85.6250,0,,,
5.358000,-86.1250,0,,,
5.368000,-85.8750,0,,,
5.378000,-87.3750,0,,,
5.388000,-87.6250,0,,,
5.398000,-87.6250,0,,,
5.408000,-88.6250,0,,,
5.418000,-88.0000,0,,,
5.428000,-88.0000,0,,,
5.438000,-85.2500,0,,,
5.448000,-75.2500,0,,,
5.458000,-73.2500,0,,,
5.468000,-95.2500,0,,,
5.478000,-82.3750,0,,,
5.488000,-83.6250,0,,,
5.498000,-80.7500,0,,,
5.508000,-77.5000,0,,,
5.518000,-82.5000,0,,,
5.528000,-85.1250,0,,,
5.538000,-86.8750,0,,,
5.548000,-86.7500,0,,,
5.558000,-87.0000,0,,,
5.568000,-87.6250,0,,,
5.578000,-86.7500,0,,,
5.588000,-86.8750,0,,,
5.598000,-87.1250,0,,,
5.608000,-86.6250,0,,,
5.618000,-86.6250,0,,,
5.628000,-86.6250,0,,,
5.638000,-87.3750,0,,,
5.648000,-86.2500,0,,,
5.658000,-88.6250,0,,,
5.668000,-87.6250,0,,,
5.678000,-87.8750,0,,,
5.688000,-76.5000,0,,,
5.698000,-88.3750,0,,,
5.708000,-97.7500,0,,,
5.718000,-87.2500,0,,,
5.728000,-84.2500,0,,,
5.738000,-83.6250,0,,,
5.748000,-81.0000,0,,,
5.758000,-80.5000,0,,,
5.768000,-76.6250,0,,,
5.778000,-74.8750,0,,,
5.788000,-87.0000,0,,,
5.798000,-87.8750,0,,,
5.808000,-86.6250,0,,,
5.818000,-86.2500,0,,,
5.828000,-85.8750,0,,,
5.838000,-86.2500,0,,,
5.848000,-86.5000,0,,,
5.858000,-85.7500,0,,,
5.868000,-87.1250,0,,,
5.878000,-86.2500,0,,,
5.888000,-86.8750,0,,,
5.898000,-87.1250,0,,,
5.908000,-86.0000,0,,,
5.918000,-84.7500,0,,,
5.928000,-85.5000,0,,,
5.938000,-85.1250,0,,,
5.948000,-86.7500,0,,,
5.958000,-86.0000,0,,,
5.968000,-87.8750,0,,,
5.978000,-88.3750,0,,,
5.988000,-88.1250,0,,,
5.998000,-87.1250,0,,,
6.008000,-87.7500,0,,,
6.018000,-87.0000,0,,,
6.028000,-87.8750,0,,,
6.038000,-86.7500,0,,,
6.048000,-83.6250,0,,,
6.058000,-76.2500,0,,,
6.068000,-71.5000,0,,,
6.078000,-91.8750,0,,,
6.088000,-95.7500,0,,,
6.098000,-87.3750,0,,,
6.108000,-83.7500,0,,,
6.118000,-85.2500,0,,,
6.128000,-83.5000,0,,,
6.138000,-84.0000,0,,,
6.148000,-82.8750,0,,,
6.158000,-83.1250,0,,,
6.168000,-81.8750,0,,,
6.178000,-81.8750,0,,,
6.188000,-80.2500,0,,,
6.198000,-80.1250,0,,,
6.208000,-78.5000,0,,,
6.218000,-78.2500,0,,,
6.228000,-76.5000,0,,,
6.238000,-76.1250,0,,,
6.248000,-74.2500,0,,,
6.258000,-77.2500,0,,,
6.268000,-82.1250,0,,,
6.278000,-84.6250,0,,,
6.288000,-84.7500,0,,,
6.298000,-87.3750,0,,,
6.308000,-85.6250,0,,,
6.318000,-87.7500,0,,,
6.328000,-85.3750,0,,,
6.338000,-87.6250,0,,,
6.348000,-85.7500,0,,,
6.358000,-87.8750,0,,,
6.368000,-86.0000,0,,,
6.378000,-87.1250,0,,,
6.388000,-85.5000,0,,,
6.398000,-87.2500,0,,,
6.408000,-85.3750,0,,,
6.418000,-87.0000,0,,,
6.428000,-84.6250,0,,,
6.438000,-86.6250,0,,,
6.448000,-85.1250,0,,,
6.458000,-86.5000,0,,,
6.468000,-85.3750,0,,,
6.478000,-86.7500,0,,,
6.488000,-85.2500,3,83.95,5.18,21.04
6.498000,-87.0000,3,83.95,5.18,21.04
6.508000,-85.6250,3,83.95,5.18,21.04
6.518000,-86.7500,3,83.95,5.18,21.04
6.528000,-85.8750,3,83.95,5.18,21.04
6.538000,-86.6250,3,83.95,5.18,21.04
6.548000,-85.6250,3,83.95,5.18,21.04
6.558000,-87.1250,3,83.95,5.18,21.04
6.568000,-85.7500,3,83.95,5.18,21.04
6.578000,-86.6250,3,83.95,5.18,21.04
6.588000,-85.1250,3,83.95,5.18,21.04
6.598000,-85.8750,3,83.95,5.18,21.04
6.608000,-84.1250,3,83.95,5.18,21.04
6.618000,-85.6250,3,83.95,5.18,21.04
6.628000,-84.8750,3,83.95,5.18,21.04
6.638000,-86.1250,3,83.95,5.18,21.04
6.648000,-86.2500,3,83.95,5.18,21.04
6.658000,-87.7500,3,83.95,5.18,21.04
6.668000,-86.6250,3,83.95,5.18,21.04
6.678000,-87.7500,3,83.95,5.18,21.04
6.688000,-87.1250,3,83.95,5.18,21.04
6.698000,-88.3750,3,83.95,5.18,21.04
6.708000,-87.3750,3,83.95,5.18,21.04
6.718000,-88.2500,3,83.95,5.18,21.04
6.728000,-87.0000,3,83.95,5.18,21.04
6.738000,-88.2500,3,83.95,5.18,21.04
6.748000,-86.1250,3,83.95,5.18,21.04
6.758000,-84.7500,3,83.95,5.18,21.04
6.768000,-75.5000,3,83.95,5.18,21.04
6.778000,-72.0000,3,83.95,5.18,21.04
6.788000,-87.7500,3,83.95,5.18,21.04
6.798000,-100.5000,3,83.95,5.18,21.04
6.808000,-87.5000,3,83.95,5.18,21.04
6.818000,-85.0000,3,83.95,5.18,21.04
6.828000,-84.0000,3,83.95,5.18,21.04
6.838000,-84.1250,3,83.95,5.18,21.04
6.848000,-83.8750,3,83.95,5.18,21.04
6.858000,-83.2500,3,83.95,5.18,21.04
6.868000,-82.8750,3,83.95,5.18,21.04
6.878000,-82.0000,3,83.95,5.18,21.04
6.888000,-82.3750,3,83.95,5.18,21.04
6.898000,-81.1250,3,83.95,5.18,21.04
6.908000,-81.2500,3,83.95,5.18,21.04
6.918000,-79.3750,3,83.95,5.18,21.04
6.928000,-79.1250,3,83.95,5.18,21.04
6.938000,-76.3750,3,83.95,5.18,21.04
6.948000,-76.0000,3,83.95,5.18,21.04
6.958000,-74.1250,3,83.95,5.18,21.04
6.968000,-74.3750,3,83.95,5.18,21.04
6.978000,-74.1250,3,83.95,5.18,21.04
6.988000,-76.3750,3,83.95,5.18,21.04
6.998000,-76.7500,3,83.95,5.18,21.04
7.008000,-81.1250,3,83.95,5.18,21.04
7.018000,-81.6250,3,83.95,5.18,21.04
7.028000,-84.8750,3,83.95,5.18,21.04
7.038000,-84.6250,3,83.95,5.18,21.04
7.048000,-86.7500,3,83.95,5.18,21.04
7.058000,-85.7500,3,83.95,5.18,21.04
7.068000,-88.2500,3,83.95,5.18,21.04
7.078000,-85.8750,3,83.95,5.18,21.04
7.088000,-87.7500,3,83.95,5.18,21.04
7.098000,-86.2500,3,83.95,5.18,21.04
7.108000,-88.1250,3,83.95,5.18,21.04
7.118000,-86.3750,3,83.95,5.18,21.04
7.128000,-87.8750,3,83.95,5.18,21.04
7.138000,-85.8750,3,83.95,5.18,21.04
7.148000,-87.3750,3,83.95,5.18,21.04
7.158000,-85.7500,3,83.95,5.18,21.04
7.168000,-87.0000,3,83.95,5.18,21.04
7.178000,-84.7500,3,83.95,5.18,21.04
7.188000,-86.6250,3,83.95,5.18,21.04
7.198000,-84.7500,3,83.95,5.18,21.04
7.208000,-86.8750,3,83.95,5.18,21.04
7.218000,-85.3750,3,83.95,5.18,21.04
7.228000,-86.8750,3,83.95,5.18,21.04
7.238000,-85.2500,3,83.95,5.18,21.04
7.248000,-87.2500,3,83.95,5.18,21.04
7.258000,-85.7500,3,83.95,5.18,21.04
7.268000,-86.7500,3,83.95,5.18,21.04
7.278000,-85.8750,3,83.95,5.18,21.04
7.288000,-87.1250,3,83.95,5.18,21.04
7.298000,-85.8750,3,83.95,5.18,21.04
7.308000,-87.3750,3,83.95,5.18,21.04
7.318000,-86.2500,3,83.95,5.18,21.04
7.328000,-87.7500,3,83.95,5.18,21.04
7.338000,-86.0000,3,83.95,5.18,21.04
7.348000,-87.5000,3,83.95,5.18,21.04
7.358000,-85.3750,3,83.95,5.18,21.04
7.368000,-86.3750,3,83.95,5.18,21.04
7.378000,-84.7500,3,83.95,5.18,21.04
7.388000,-85.5000,3,83.95,5.18,21.04
7.398000,-84.5000,3,83.95,5.18,21.04
7.408000,-86.2500,3,83.95,5.18,21.04
7.418000,-85.6250,3,83.95,5.18,21.04
7.428000,-87.6250,3,83.95,5.18,21.04
7.438000,-86.7500,3,83.95,5.18,21.04
7.448000,-88.5000,3,83.95,5.18,21.04
7.458000,-87.6250,3,83.95,5.18,21.04
7.468000,-88.0000,3,83.95,5.18,21.04
7.478000,-87.0000,3,83.95,5.18,21.04
7.488000,-88.2500,3,83.95,5.18,21.04
7.498000,-87.6250,3,83.95,5.18,21.04
7.508000,-88.0000,3,83.95,5.18,21.04
7.518000,-87.0000,3,83.95,5.18,21.04
7.528000,-85.2500,3,83.95,5.18,21.04
7.538000,-77.1250,3,83.95,5.18,21.04
7.548000,-74.7500,3,83.95,5.18,21.04
7.558000,-78.8750,3,83.95,5.18,21.04
7.568000,-97.8750,3,83.95,5.18,21.04
7.578000,-91.5000,3,83.95,5.18,21.04
7.588000,-85.1250,3,83.95,5.18,21.04
7.598000,-84.2500,3,83.95,5.18,21.04
7.608000,-84.8750,3,83.95,5.18,21.04
7.618000,-83.7500,3,83.95,5.18,21.04
7.628000,-83.8750,3,83.95,5.18,21.04
7.638000,-83.0000,3,83.95,5.18,21.04
7.648000,-82.7500,3,83.95,5.18,21.04
7.658000,-82.6250,3,83.95,5.18,21.04
7.668000,-81.6250,3,83.95,5.18,21.04
7.678000,-81.0000,3,83.95,5.18,21.04
7.688000,-79.2500,3,83.95,5.18,21.04
7.698000,-78.8750,3,83.95,5.18,21.04
7.708000,-76.8750,3,83.95,5.18,21.04
7.718000,-76.3750,3,83.95,5.18,21.04
7.728000,-74.5000,3,83.95,5.18,21.04
7.738000,-74.2500,3,83.95,5.18,21.04
7.748000,-73.5000,3,83.95,5.18,21.04
7.758000,-74.8750,3,83.95,5.18,21.04
7.768000,-75.8750,3,83.95,5.18,21.04
7.778000,-79.1250,3,83.95,5.18,21.04
7.788000,-81.1250,3,83.95,5.18,21.04
7.798000,-84.1250,3,83.95,5.18,21.04
7.808000,-84.3750,3,83.95,5.18,21.04
7.818000,-86.7500,3,83.95,5.18,21.04
7.828000,-85.7500,3,83.95,5.18,21.04
7.838000,-87.8750,3,83.95,5.18,21.04
7.848000,-86.3750,3,83.95,5.18,21.04
7.858000,-87.7500,3,83.95,5.18,21.04
7.868000,-86.2500,3,83.95,5.18,21.04
7.878000,-87.3750,3,83.95,5.18,21.04
7.888000,-86.1250,3,83.95,5.18,21.04
7.898000,-87.6250,3,83.95,5.18,21.04
7.908000,-85.7500,3,83.95,5.18,21.04
7.918000,-87.5000,3,83.95,5.18,21.04
7.928000,-85.5000,3,83.95,5.18,21.04
7.938000,-86.6250,3,83.95,5.18,21.04
7.948000,-84.7500,3,83.95,5.18,21.04
7.958000,-86.6250,3,83.95,5.18,21.04
7.968000,-85.3750,3,83.95,5.18,21.04
7.978000,-86.8750,3,83.95,5.18,21.04
7.988000,-85.1250,3,83.95,5.18,21.04
7.998000,-86.7500,3,83.95,5.18,21.04
8.008000,-85.3750,3,83.95,5.18,21.04
8.018000,-87.2500,3,83.95,5.18,21.04
8.028000,-85.8750,3,83.95,5.18,21.04
8.038000,-87.5000,3,83.95,5.18,21.04
8.048000,-85.8750,3,83.95,5.18,21.04
8.058000,-87.2500,3,83.95,5.18,21.04
8.068000,-86.0000,3,83.95,5.18,21.04
8.078000,-87.7500,3,83.95,5.18,21.04
8.088000,-85.8750,3,83.95,5.18,21.04
8.098000,-87.7500,3,83.95,5.18,21.04
8.108000,-86.3750,3,83.95,5.18,21.04
8.118000,-87.7500,3,83.95,5.18,21.04
8.128000,-86.2500,3,83.95,5.18,21.04
8.138000,-87.0000,3,83.95,5.18,21.04
8.148000,-85.2500,3,83.95,5.18,21.04
8.158000,-86.5000,3,83.95,5.18,21.04
8.168000,-84.7500,3,83.95,5.18,21.04
8.178000,-85.5000,3,83.95,5.18,21.04
8.188000,-85.1250,3,83.95,5.18,21.04
8.198000,-86.7500,3,83.95,5.18,21.04
8.208000,-86.8750,3,83.95,5.18,21.04
8.218000,-87.3750,3,83.95,5.18,21.04
8.228000,-87.1250,3,83.95,5.18,21.04
8.238000,-89.0000,3,83.95,5.18,21.04
8.248000,-87.7500,3,83.95,5.18,21.04
8.258000,-74.2500,3,83.95,5.18,21.04
8.268000,-87.6250,3,83.95,5.18,21.04
8.278000,-82.5000,3,83.95,5.18,21.04
8.288000,-76.6250,3,83.95,5.18,21.04
8.298000,-74.8750,3,83.95,5.18,21.04
8.308000,-76.5000,3,83.95,5.18,21.04
8.318000,-82.1250,3,83.95,5.18,21.04
8.328000,-85.2500,3,83.95,5.18,21.04
8.338000,-87.6250,3,83.95,5.18,21.04
8.348000,-88.0000,3,83.95,5.18,21.04
8.358000,-87.6250,3,83.95,5.18,21.04
8.368000,-88.0000,3,83.95,5.18,21.04
8.378000,-87.5000,3,83.95,5.18,21.04
8.388000,-88.0000,3,83.95,5.18,21.04
8.398000,-87.1250,3,83.95,5.18,21.04
8.408000,-87.7500,3,83.95,5.18,21.04
8.418000,-87.0000,3,83.95,5.18,21.04
8.428000,-86.5000,3,83.95,5.18,21.04
8.438000,-85.8750,3,83.95,5.18,21.04
8.448000,-87.2500,3,83.95,5.18,21.04
8.458000,-86.3750,3,83.95,5.18,21.04
8.468000,-86.7500,3,83.95,5.18,21.04
8.478000,-84.0000,3,83.95,5.18,21.04
8.488000,-84.2500,3,83.95,5.18,21.04
8.498000,-98.1250,3,83.95,5.18,21.04
8.508000,-84.2500,3,83.95,5.18,21.04
8.518000,-82.5000,3,83.95,5.18,21.04
8.528000,-80.6250,3,83.95,5.18,21.04
8.538000,-81.0000,3,83.95,5.18,21.04
8.548000,-76.5000,3,83.95,5.18,21.04
8.558000,-74.1250,3,83.95,5.18,21.04
8.568000,-73.7500,3,83.95,5.18,21.04
8.578000,-75.6250,3,83.95,5.18,21.04
8.588000,-76.7500,3,83.95,5.18,21.04
8.598000,-79.8750,3,83.95,5.18,21.04
8.608000,-81.7500,3,83.95,5.18,21.04
8.618000,-84.7500,3,83.95,5.18,21.04
8.628000,-85.5000,3,83.95,5.18,21.04
8.638000,-86.2500,3,83.95,5.18,21.04
8.648000,-86.3750,3,83.95,5.18,21.04
8.658000,-87.6250,3,83.95,5.18,21.04
8.668000,-87.1250,3,83.95,5.18,21.04
8.678000,-87.1250,3,83.95,5.18,21.04
8.688000,-87.7500,3,83.95,5.18,21.04
8.698000,-86.5000,3,83.95,5.18,21.04
8.708000,-86.6250,3,83.95,5.18,21.04
8.718000,-86.7500,3,83.95,5.18,21.04
8.728000,-87.3750,3,83.95,5.18,21.04
8.738000,-86.5000,3,83.95,5.18,21.04
8.748000,-85.2500,3,83.95,5.18,21.04
8.758000,-88.1250,3,83.95,5.18,21.04
8.768000,-88.1250,3,83.95,5.18,21.04
8.778000,-82.1250,3,83.95,5.18,21.04
8.788000,-86.7500,3,83.95,5.18,21.04
8.798000,-84.1250,3,83.95,5.18,21.04
8.808000,-83.6250,3,83.95,5.18,21.04
8.818000,-82.3750,3,83.95,5.18,21.04
8.828000,-82.0000,3,83.95,5.18,21.04
8.838000,-80.1250,3,83.95,5.18,21.04
8.848000,-77.7500,3,83.95,5.18,21.04
8.858000,-73.6250,3,83.95,5.18,21.04
8.868000,-81.8750,3,83.95,5.18,21.04
8.878000,-87.2500,3,83.95,5.18,21.04
8.888000,-86.1250,3,83.95,5.18,21.04
8.898000,-85.8750,3,83.95,5.18,21.04
8.908000,-86.3750,3,83.95,5.18,21.04
8.918000,-86.5000,3,83.95,5.18,21.04
8.928000,-87.1250,3,83.95,5.18,21.04
8.938000,-88.1250,3,83.95,5.18,21.04
8.948000,-87.1250,3,83.95,5.18,21.04
8.958000,-88.2500,3,83.95,5.18,21.04
8.968000,-83.1250,3,83.95,5.18,21.04
8.978000,-74.6250,3,83.95,5.18,21.04
8.988000,-97.7500,3,83.95,5.18,21.04
8.998000,-83.7500,3,83.95,5.18,21.04
9.008000,-83.7500,3,83.95,5.18,21.04
9.018000,-82.8750,3,83.95,5.18,21.04
9.028000,-82.6250,3,83.95,5.18,21.04
9.038000,-82.3750,3,83.95,5.18,21.04
9.048000,-81.1250,3,83.95,5.18,21.04
9.058000,-78.7500,3,83.95,5.18,21.04
9.068000,-73.6250,3,83.95,5.18,21.04
9.078000,-80.2500,3,83.95,5.18,21.04
9.088000,-84.5000,3,83.95,5.18,21.04
9.098000,-86.7500,3,83.95,5.18,21.04
9.108000,-87.6250,3,83.95,5.18,21.04
9.118000,-87.5000,3,83.95,5.18,21.04
9.128000,-86.7500,3,83.95,5.18,21.04
9.138000,-87.1250,3,83.95,5.18,21.04
9.148000,-86.5000,3,83.95,5.18,21.04
9.158000,-86.7500,3,83.95,5.18,21.04
9.168000,-86.3750,3,83.95,5.18,21.04
9.178000,-87.6250,3,83.95,5.18,21.04
9.188000,-88.1250,3,83.95,5.18,21.04
9.198000,-86.6250,3,83.95,5.18,21.04
9.208000,-88.5000,3,83.95,5.18,21.04
9.218000,-86.5000,3,83.95,5.18,21.04
9.228000,-87.0000,3,83.95,5.18,21.04
9.238000,-86.8750,3,83.95,5.18,21.04
9.248000,-86.5000,3,83.95,5.18,21.04
9.258000,-85.1250,3,83.95,5.18,21.04
9.268000,-86.8750,3,83.95,5.18,21.04
9.278000,-87.6250,3,83.95,5.18,21.04
9.288000,-91.8750,3,83.95,5.18,21.04
9.298000,-85.2500,3,83.95,5.18,21.04
9.308000,-84.8750,3,83.95,5.18,21.04
9.318000,-84.3750,3,83.95,5.18,21.04
9.328000,-83.1250,3,83.95,5.18,21.04
9.338000,-81.5000,3,83.95,5.18,21.04
9.348000,-80.1250,3,83.95,5.18,21.04
9.358000,-77.1250,3,83.95,5.18,21.04
9.368000,-74.7500,3,83.95,5.18,21.04
9.378000,-79.5000,3,83.95,5.18,21.04
9.388000,-81.7500,3,83.95,5.18,21.04
9.398000,-85.0000,3,83.95,5.18,21.04
9.408000,-84.8750,3,83.95,5.18,21.04
9.418000,-87.3750,3,83.95,5.18,21.04
9.428000,-87.1250,3,83.95,5.18,21.04
9.438000,-87.5000,3,83.95,5.18,21.04
9.448000,-87.0000,3,83.95,5.18,21.04
9.458000,-86.1250,3,83.95,5.18,21.04
9.468000,-86.0000,3,83.95,5.18,21.04
9.478000,-86.3750,3,83.95,5.18,21.04
9.488000,-85.7500,3,83.95,5.18,21.04
9.498000,-86.0000,3,83.95,5.18,21.04
9.508000,-84.8750,3,83.95,5.18,21.04
9.518000,-84.6250,3,83.95,5.18,21.04
9.528000,-84.7500,3,83.95,5.18,21.04
9.538000,-88.0000,3,83.95,5.18,21.04
9.548000,-87.1250,3,83.95,5.18,21.04
9.558000,-86.3750,3,83.95,5.18,21.04
9.568000,-85.1250,3,83.95,5.18,21.04
9.578000,-82.2500,3,83.95,5.18,21.04
9.588000,-81.3750,3,83.95,5.18,21.04
9.598000,-82.2500,3,83.95,5.18,21.04
9.608000,-80.2500,3,83.95,5.18,21.04
9.618000,-78.2500,3,83.95,5.18,21.04
9.628000,-76.1250,3,83.95,5.18,21.04
9.638000,-75.7500,3,83.95,5.18,21.04
9.648000,-71.3750,3,83.95,5.18,21.04
9.658000,-80.0000,3,83.95,5.18,21.04
9.668000,-84.8750,3,83.95,5.18,21.04
9.678000,-87.3750,3,83.95,5.18,21.04
9.688000,-85.8750,3,83.95,5.18,21.04
9.698000,-86.1250,3,83.95,5.18,21.04
9.708000,-85.6250,3,83.95,5.18,21.04
9.718000,-86.2500,3,83.95,5.18,21.04
9.728000,-86.0000,3,83.95,5.18,21.04
9.738000,-86.3750,3,83.95,5.18,21.04
9.748000,-85.8750,3,83.95,5.18,21.04
9.758000,-87.0000,3,83.95,5.18,21.04
9.768000,-86.0000,3,83.95,5.18,21.04
9.778000,-85.1250,3,83.95,5.18,21.04
9.788000,-84.2500,3,83.95,5.18,21.04
9.798000,-86.3750,3,83.95,5.18,21.04
9.808000,-86.5000,3,83.95,5.18,21.04
9.818000,-84.5000,3,83.95,5.18,21.04
9.828000,-82.7500,3,83.95,5.18,21.04
9.838000,-83.8750,3,83.95,5.18,21.04
9.848000,-82.8750,3,83.95,5.18,21.04
9.858000,-81.7500,3,83.95,5.18,21.04
9.868000,-78.6250,3,83.95,5.18,21.04
9.878000,-76.3750,3,83.95,5.18,21.04
9.888000,-75.7500,3,83.95,5.18,21.04
9.898000,-73.3750,3,83.95,5.18,21.04
9.908000,-73.7500,3,83.95,5.18,21.04
9.918000,-74.7500,3,83.95,5.18,21.04
9.928000,-85.1250,3,83.95,5.18,21.04
9.938000,-87.0000,3,83.95,5.18,21.04
9.948000,-87.3750,3,83.95,5.18,21.04
9.958000,-85.1250,3,83.95,5.18,21.04
9.968000,-85.6250,3,83.95,5.18,21.04
9.978000,-86.6250,3,83.95,5.18,21.04
9.988000,-86.0000,3,83.95,5.18,21.04
9.998000,-85.6250,3,83.95,5.18,21.04
10.008000,-86.5000,3,83.95,5.18,21.04
10.018000,-86.5000,3,83.95,5.18,21.04
10.028000,-86.2500,3,83.95,5.18,21.04
10.038000,-87.1250,3,83.95,5.18,21.04
10.048000,-86.1250,3,83.95,5.18,21.04
10.058000,-86.6250,3,83.95,5.18,21.04
10.068000,-84.8750,3,83.95,5.18,21.04
10.078000,-87.2500,3,83.95,5.18,21.04
10.088000,-86.2500,3,83.95,5.18,21.04
10.098000,-88.3750,3,83.95,5.18,21.04
10.108000,-86.6250,3,83.95,5.18,21.04
10.118000,-88.2500,3,83.95,5.18,21.04
10.128000,-87.0000,3,83.95,5.18,21.04
10.138000,-88.2500,3,83.95,5.18,21.04
10.148000,-86.8750,3,83.95,5.18,21.04
10.158000,-88.0000,3,83.95,5.18,21.04
10.168000,-86.6250,3,83.95,5.18,21.04
10.178000,-85.3750,3,83.95,5.18,21.04
10.188000,-78.6250,3,83.95,5.18,21.04
10.198000,-73.6250,3,83.95,5.18,21.04
10.208000,-87.0000,3,83.95,5.18,21.04
10.218000,-98.3750,3,83.95,5.18,21.04
10.228000,-87.1250,3,83.95,5.18,21.04
10.238000,-84.3750,3,83.95,5.18,21.04
10.248000,-85.0000,3,83.95,5.18,21.04
10.258000,-83.7500,3,83.95,5.18,21.04
10.268000,-83.8750,3,83.95,5.18,21.04
10.278000,-82.6250,3,83.95,5.18,21.04
10.288000,-83.1250,3,83.95,5.18,21.04
10.298000,-81.5000,3,83.95,5.18,21.04
10.308000,-82.0000,3,83.95,5.18,21.04
10.318000,-80.0000,3,83.95,5.18,21.04
10.328000,-80.5000,3,83.95,5.18,21.04
10.338000,-77.3750,3,83.95,5.18,21.04
10.348000,-78.0000,3,83.95,5.18,21.04
10.358000,-75.3750,3,83.95,5.18,21.04
10.368000,-75.5000,3,83.95,5.18,21.04
10.378000,-73.3750,3,83.95,5.18,21.04
10.388000,-74.1250,3,83.95,5.18,21.04
10.398000,-76.1250,3,83.95,5.18,21.04
10.408000,-81.5000,3,83.95,5.18,21.04
10.418000,-85.1250,3,83.95,5.18,21.04
10.428000,-87.2500,3,83.95,5.18,21.04
10.438000,-86.5000,3,83.95,5.18,21.04
10.448000,-87.2500,3,83.95,5.18,21.04
10.458000,-86.6250,3,83.95,5.18,21.04
10.468000,-87.5000,3,83.95,5.18,21.04
10.478000,-86.6250,3,83.95,5.18,21.04
10.488000,-86.6250,3,83.95,5.18,21.04
10.498000,-86.5000,3,83.95,5.18,21.04
10.508000,-86.5000,3,83.95,5.18,21.04
10.518000,-86.3750,3,83.95,5.18,21.04
10.528000,-85.8750,3,83.95,5.18,21.04
10.538000,-85.8750,3,83.95,5.18,21.04
10.548000,-85.5000,3,83.95,5.18,21.04
10.558000,-86.0000,3,83.95,5.18,21.04
10.568000,-85.8750,3,83.95,5.18,21.04
10.578000,-86.3750,3,83.95,5.18,21.04
10.588000,-85.5000,3,83.95,5.18,21.04
10.598000,-86.1250,3,83.95,5.18,21.04
10.608000,-85.1250,3,83.95,5.18,21.04
10.618000,-85.6250,3,83.95,5.18,21.04
10.628000,-85.3750,3,83.95,5.18,21.04
10.638000,-86.5000,3,83.95,5.18,21.04
10.648000,-85.5000,3,83.95,5.18,21.04
10.658000,-87.0000,5,97.63,6.55,18.31
10.668000,-85.8750,5,97.63,6.55,18.31
10.678000,-86.3750,5,97.63,6.55,18.31
10.688000,-85.6250,5,97.63,6.55,18.31
10.698000,-86.8750,5,97.63,6.55,18.31
10.708000,-85.7500,5,97.63,6.55,18.31
10.718000,-86.7500,5,97.63,6.55,18.31
10.728000,-85.7500,5,97.63,6.55,18.31
10.738000,-85.7500,5,97.63,6.55,18.31
10.748000,-85.0000,5,97.63,6.55,18.31
10.758000,-85.2500,5,97.63,6.55,18.31
10.768000,-83.7500,5,97.63,6.55,18.31
10.778000,-85.6250,5,97.63,6.55,18.31
10.788000,-84.7500,5,97.63,6.55,18.31
10.798000,-87.1250,5,97.63,6.55,18.31
10.808000,-86.2500,5,97.63,6.55,18.31
10.818000,-88.0000,5,97.63,6.55,18.31
10.828000,-86.2500,5,97.63,6.55,18.31
10.838000,-87.2500,5,97.63,6.55,18.31
10.848000,-86.2500,5,97.63,6.55,18.31
10.858000,-88.3750,5,97.63,6.55,18.31
10.868000,-87.0000,5,97.63,6.55,18.31
10.878000,-87.7500,5,97.63,6.55,18.31
10.888000,-86.8750,5,97.63,6.55,18.31
10.898000,-87.1250,5,97.63,6.55,18.31
10.908000,-82.7500,5,97.63,6.55,18.31
10.918000,-74.1250,5,97.63,6.55,18.31
10.928000,-69.0000,5,97.63,6.55,18.31
10.938000,-88.6250,5,97.63,6.55,18.31
10.948000,-98.6250,5,97.63,6.55,18.31
10.958000,-87.6250,5,97.63,6.55,18.31
10.968000,-83.5000,5,97.63,6.55,18.31
10.978000,-84.8750,5,97.63,6.55,18.31
10.988000,-83.2500,5,97.63,6.55,18.31
10.998000,-83.7500,5,97.63,6.55,18.31
11.008000,-82.0000,5,97.63,6.55,18.31
11.018000,-82.7500,5,97.63,6.55,18.31
11.028000,-81.0000,5,97.63,6.55,18.31
11.038000,-81.3750,5,97.63,6.55,18.31
11.048000,-79.8750,5,97.63,6.55,18.31
11.058000,-79.7500,5,97.63,6.55,18.31
11.068000,-78.1250,5,97.63,6.55,18.31
11.078000,-77.7500,5,97.63,6.55,18.31
11.088000,-76.0000,5,97.63,6.55,18.31
11.098000,-75.1250,5,97.63,6.55,18.31
11.108000,-73.7500,5,97.63,6.55,18.31
11.118000,-73.6250,5,97.63,6.55,18.31
11.128000,-73.0000,5,97.63,6.55,18.31
11.138000,-75.0000,5,97.63,6.55,18.31
11.148000,-76.7500,5,97.63,6.55,18.31
11.158000,-80.1250,5,97.63,6.55,18.31
11.168000,-82.6250,5,97.63,6.55,18.31
11.178000,-84.5000,5,97.63,6.55,18.31
11.188000,-85.3750,5,97.63,6.55,18.31
11.198000,-87.1250,5,97.63,6.55,18.31
11.208000,-87.1250,5,97.63,6.55,18.31
11.218000,-87.5000,5,97.63,6.55,18.31
11.228000,-87.6250,5,97.63,6.55,18.31
11.238000,-87.1250,5,97.63,6.55,18.31
11.248000,-87.5000,5,97.63,6.55,18.31
11.258000,-87.5000,5,97.63,6.55,18.31
11.268000,-87.0000,5,97.63,6.55,18.31
11.278000,-87.8750,5,97.63,6.55,18.31
11.288000,-87.7500,5,97.63,6.55,18.31
11.298000,-87.8750,5,97.63,6.55,18.31
11.308000,-86.8750,5,97.63,6.55,18.31
11.318000,-87.1250,5,97.63,6.55,18.31
11.328000,-87.1250,5,97.63,6.55,18.31
11.338000,-86.6250,5,97.63,6.55,18.31
11.348000,-86.6250,5,97.63,6.55,18.31
11.358000,-85.8750,5,97.63,6.55,18.31
11.368000,-86.6250,5,97.63,6.55,18.31
11.378000,-86.2500,5,97.63,6.55,18.31
11.388000,-87.0000,5,97.63,6.55,18.31
11.398000,-86.7500,5,97.63,6.55,18.31
11.408000,-87.5000,5,97.63,6.55,18.31
11.418000,-86.6250,5,97.63,6.55,18.31
11.428000,-87.8750,5,97.63,6.55,18.31
11.438000,-86.3750,5,97.63,6.55,18.31
11.448000,-87.6250,5,97.63,6.55,18.31
11.458000,-86.8750,5,97.63,6.55,18.31
11.468000,-88.2500,5,97.63,6.55,18.31
11.478000,-87.2500,5,97.63,6.55,18.31
11.488000,-87.8750,5,97.63,6.55,18.31
11.498000,-86.8750,5,97.63,6.55,18.31
11.508000,-87.6250,5,97.63,6.55,18.31
11.518000,-86.7500,5,97.63,6.55,18.31
11.528000,-87.1250,5,97.63,6.55,18.31
11.538000,-85.0000,5,97.63,6.55,18.31
11.548000,-86.2500,5,97.63,6.55,18.31
11.558000,-84.5000,5,97.63,6.55,18.31
11.568000,-86.1250,5,97.63,6.55,18.31
11.578000,-85.7500,5,97.63,6.55,18.31
11.588000,-88.5000,5,97.63,6.55,18.31
11.598000,-87.7500,5,97.63,6.55,18.31
11.608000,-88.6250,5,97.63,6.55,18.31
11.618000,-87.3750,5,97.63,6.55,18.31
11.628000,-89.0000,5,97.63,6.55,18.31
11.638000,-87.5000,5,97.63,6.55,18.31
11.648000,-88.3750,5,97.63,6.55,18.31
11.658000,-87.5000,5,97.63,6.55,18.31
11.668000,-88.7500,5,97.63,6.55,18.31
11.678000,-87.7500,5,97.63,6.55,18.31
11.688000,-87.7500,5,97.63,6.55,18.31
11.698000,-84.0000,5,97.63,6.55,18.31
11.708000,-75.2500,5,97.63,6.55,18.31
11.718000,-69.6250,5,97.63,6.55,18.31
11.728000,-87.0000,5,97.63,6.55,18.31
11.738000,-100.6250,5,97.63,6.55,18.31
11.748000,-89.8750,5,97.63,6.55,18.31
11.758000,-84.5000,5,97.63,6.55,18.31
11.768000,-84.8750,5,97.63,6.55,18.31
11.778000,-84.2500,5,97.63,6.55,18.31
11.788000,-84.8750,5,97.63,6.55,18.31
11.798000,-83.2500,5,97.63,6.55,18.31
11.808000,-83.3750,5,97.63,6.55,18.31
11.818000,-81.8750,5,97.63,6.55,18.31
11.828000,-82.8750,5,97.63,6.55,18.31
11.838000,-81.1250,5,97.63,6.55,18.31
11.848000,-80.8750,5,97.63,6.55,18.31
11.858000,-79.3750,5,97.63,6.55,18.31
11.868000,-78.5000,5,97.63,6.55,18.31
11.878000,-75.7500,5,97.63,6.55,18.31
11.888000,-75.0000,5,97.63,6.55,18.31
11.898000,-73.7500,5,97.63,6.55,18.31
11.908000,-73.3750,5,97.63,6.55,18.31
11.918000,-73.0000,5,97.63,6.55,18.31
11.928000,-74.5000,5,97.63,6.55,18.31
11.938000,-76.6250,5,97.63,6.55,18.31
11.948000,-79.5000,5,97.63,6.55,18.31
11.958000,-81.8750,5,97.63,6.55,18.31
11.968000,-84.8750,5,97.63,6.55,18.31
11.978000,-85.5000,5,97.63,6.55,18.31
11.988000,-87.2500,5,97.63,6.55,18.31
11.998000,-87.2500,5,97.63,6.55,18.31
12.008000,-88.0000,5,97.63,6.55,18.31
12.018000,-87.3750,5,97.63,6.55,18.31
12.028000,-87.7500,5,97.63,6.55,18.31
12.038000,-88.0000,5,97.63,6.55,18.31
12.048000,-88.0000,5,97.63,6.55,18.31
12.058000,-88.2500,5,97.63,6.55,18.31
12.068000,-87.5000,5,97.63,6.55,18.31
12.078000,-88.2500,5,97.63,6.55,18.31
12.088000,-87.6250,5,97.63,6.55,18.31
12.098000,-88.3750,5,97.63,6.55,18.31
12.108000,-87.2500,5,97.63,6.55,18.31
12.118000,-88.0000,5,97.63,6.55,18.31
12.128000,-86.7500,5,97.63,6.55,18.31
12.138000,-87.3750,5,97.63,6.55,18.31
12.148000,-86.8750,5,97.63,6.55,18.31
12.158000,-87.3750,5,97.63,6.55,18.31
12.168000,-86.5000,5,97.63,6.55,18.31
12.178000,-88.2500,5,97.63,6.55,18.31
12.188000,-86.3750,5,97.63,6.55,18.31
12.198000,-87.5000,5,97.63,6.55,18.31
12.208000,-87.0000,5,97.63,6.55,18.31
12.218000,-87.7500,5,97.63,6.55,18.31
12.228000,-87.2500,5,97.63,6.55,18.31
12.238000,-88.5000,5,97.63,6.55,18.31
12.248000,-87.1250,5,97.63,6.55,18.31
12.258000,-88.0000,5,97.63,6.55,18.31
12.268000,-86.3750,5,97.63,6.55,18.31
12.278000,-87.6250,5,97.63,6.55,18.31
12.288000,-86.6250,5,97.63,6.55,18.31
12.298000,-86.2500,5,97.63,6.55,18.31
12.308000,-86.1250,5,97.63,6.55,18.31
12.318000,-86.3750,5,97.63,6.55,18.31
12.328000,-84.8750,5,97.63,6.55,18.31
12.338000,-87.6250,5,97.63,6.55,18.31
12.348000,-86.2500,5,97.63,6.55,18.31
12.358000,-88.1250,5,97.63,6.55,18.31
12.368000,-89.3750,5,97.63,6.55,18.31
12.378000,-88.8750,5,97.63,6.55,18.31
12.388000,-87.7500,5,97.63,6.55,18.31
12.398000,-72.5000,5,97.63,6.55,18.31
12.408000,-96.8750,5,97.63,6.55,18.31
12.418000,-85.0000,5,97.63,6.55,18.31
12.428000,-82.1250,5,97.63,6.55,18.31
12.438000,-80.6250,5,97.63,6.55,18.31
12.448000,-76.0000,5,97.63,6.55,18.31
12.458000,-83.5000,5,97.63,6.55,18.31
12.468000,-85.7500,5,97.63,6.55,18.31
12.478000,-86.7500,5,97.63,6.55,18.31
12.488000,-87.0000,5,97.63,6.55,18.31
12.498000,-88.2500,5,97.63,6.55,18.31
12.508000,-86.5000,5,97.63,6.55,18.31
12.518000,-87.2500,5,97.63,6.55,18.31
12.528000,-87.0000,5,97.63,6.55,18.31
12.538000,-87.0000,5,97.63,6.55,18.31
12.548000,-86.7500,5,97.63,6.55,18.31
12.558000,-86.3750,5,97.63,6.55,18.31
12.568000,-87.1250,5,97.63,6.55,18.31
12.578000,-86.2500,5,97.63,6.55,18.31
12.588000,-87.0000,5,97.63,6.55,18.31
12.598000,-86.2500,5,97.63,6.55,18.31
12.608000,-86.6250,5,97.63,6.55,18.31
12.618000,-85.5000,5,97.63,6.55,18.31
12.628000,-86.6250,5,97.63,6.55,18.31
12.638000,-86.6250,5,97.63,6.55,18.31
12.648000,-88.2500,5,97.63,6.55,18.31
12.658000,-84.8750,5,97.63,6.55,18.31
12.668000,-80.0000,5,97.63,6.55,18.31
12.678000,-76.8750,5,97.63,6.55,18.31
12.688000,-75.0000,5,97.63,6.55,18.31
12.698000,-79.2500,5,97.63,6.55,18.31
12.708000,-83.8750,5,97.63,6.55,18.31
12.718000,-86.0000,5,97.63,6.55,18.31
12.728000,-86.6250,5,97.63,6.55,18.31
12.738000,-87.1250,5,97.63,6.55,18.31
12.748000,-87.3750,5,97.63,6.55,18.31
12.758000,-87.5000,5,97.63,6.55,18.31
12.768000,-87.6250,5,97.63,6.55,18.31
12.778000,-86.5000,5,97.63,6.55,18.31
12.788000,-87.6250,5,97.63,6.55,18.31
12.798000,-86.7500,5,97.63,6.55,18.31
12.808000,-87.1250,5,97.63,6.55,18.31
12.818000,-86.5000,5,97.63,6.55,18.31
12.828000,-87.3750,5,97.63,6.55,18.31
12.838000,-85.8750,5,97.63,6.55,18.31
12.848000,-86.3750,5,97.63,6.55,18.31
12.858000,-86.2500,5,97.63,6.55,18.31
12.868000,-86.5000,5,97.63,6.55,18.31
12.878000,-86.5000,5,97.63,6.55,18.31
12.888000,-86.2500,5,97.63,6.55,18.31
12.898000,-86.1250,5,97.63,6.55,18.31
12.908000,-88.7500,5,97.63,6.55,18.31
12.918000,-87.2500,5,97.63,6.55,18.31
12.928000,-86.7500,5,97.63,6.55,18.31
12.938000,-83.5000,5,97.63,6.55,18.31
12.948000,-78.2500,5,97.63,6.55,18.31
12.958000,-73.5000,5,97.63,6.55,18.31
12.968000,-75.3750,5,97.63,6.55,18.31
12.978000,-80.1250,5,97.63,6.55,18.31
12.988000,-86.5000,5,97.63,6.55,18.31
12.998000,-86.7500,5,97.63,6.55,18.31
13.008000,-87.2500,5,97.63,6.55,18.31
13.018000,-88.0000,5,97.63,6.55,18.31
13.028000,-87.3750,5,97.63,6.55,18.31
13.038000,-87.8750,5,97.63,6.55,18.31
13.048000,-86.7500,5,97.63,6.55,18.31
13.058000,-86.6250,5,97.63,6.55,18.31
13.068000,-88.5000,5,97.63,6.55,18.31
13.078000,-75.6250,5,97.63,6.55,18.31
13.088000,-86.6250,5,97.63,6.55,18.31
13.098000,-83.2500,5,97.63,6.55,18.31
13.108000,-81.3750,5,97.63,6.55,18.31
13.118000,-79.2500,5,97.63,6.55,18.31
13.128000,-76.8750,5,97.63,6.55,18.31
13.138000,-75.7500,5,97.63,6.55,18.31
13.148000,-76.1250,5,97.63,6.55,18.31
13.158000,-83.1250,5,97.63,6.55,18.31
13.168000,-86.7500,5,97.63,6.55,18.31
13.178000,-88.6250,5,97.63,6.55,18.31
13.188000,-89.2500,5,97.63,6.55,18.31
13.198000,-89.6250,5,97.63,6.55,18.31
13.208000,-88.8750,5,97.63,6.55,18.31
13.218000,-88.3750,5,97.63,6.55,18.31
13.228000,-88.8750,5,97.63,6.55,18.31
13.238000,-87.7500,5,97.63,6.55,18.31
13.248000,-87.8750,5,97.63,6.55,18.31
13.258000,-88.6250,5,97.63,6.55,18.31
13.268000,-88.2500,5,97.63,6.55,18.31
13.278000,-87.6250,5,97.63,6.55,18.31
13.288000,-87.6250,5,97.63,6.55,18.31
13.298000,-86.8750,5,97.63,6.55,18.31
13.308000,-88.0000,5,97.63,6.55,18.31
13.318000,-88.8750,5,97.63,6.55,18.31
13.328000,-88.3750,5,97.63,6.55,18.31
13.338000,-88.5000,5,97.63,6.55,18.31
13.348000,-88.8750,5,97.63,6.55,18.31
13.358000,-89.0000,5,97.63,6.55,18.31
13.368000,-88.3750,5,97.63,6.55,18.31
13.378000,-85.0000,5,97.63,6.55,18.31
13.388000,-99.3750,5,97.63,6.55,18.31
13.398000,-85.0000,5,97.63,6.55,18.31
13.408000,-84.0000,5,97.63,6.55,18.31
13.418000,-83.7500,5,97.63,6.55,18.31
13.428000,-82.7500,5,97.63,6.55,18.31
13.438000,-82.1250,5,97.63,6.55,18.31
13.448000,-78.8750,5,97.63,6.55,18.31
13.458000,-76.8750,5,97.63,6.55,18.31
13.468000,-88.1250,5,97.63,6.55,18.31
13.478000,-88.8750,5,97.63,6.55,18.31
13.488000,-88.8750,5,97.63,6.55,18.31
13.498000,-88.8750,5,97.63,6.55,18.31
13.508000,-88.3750,5,97.63,6.55,18.31
13.518000,-88.5000,5,97.63,6.55,18.31
13.528000,-87.2500,5,97.63,6.55,18.31
13.538000,-86.8750,5,97.63,6.55,18.31
13.548000,-87.1250,5,97.63,6.55,18.31
13.558000,-86.3750,5,97.63,6.55,18.31
13.568000,-87.7500,5,97.63,6.55,18.31
13.578000,-87.2500,5,97.63,6.55,18.31
13.588000,-87.8750,5,97.63,6.55,18.31
13.598000,-86.0000,5,97.63,6.55,18.31
13.608000,-87.5000,5,97.63,6.55,18.31
13.618000,-88.0000,5,97.63,6.55,18.31
13.628000,-83.0000,5,97.63,6.55,18.31
13.638000,-71.0000,5,97.63,6.55,18.31
13.648000,-100.6250,5,97.63,6.55,18.31
13.658000,-85.2500,5,97.63,6.55,18.31
13.668000,-84.7500,5,97.63,6.55,18.31
13.678000,-85.0000,5,97.63,6.55,18.31
13.688000,-82.5000,5,97.63,6.55,18.31
13.698000,-78.7500,5,97.63,6.55,18.31
13.708000,-76.1250,5,97.63,6.55,18.31
13.718000,-85.1250,5,97.63,6.55,18.31
13.728000,-85.8750,5,97.63,6.55,18.31
13.738000,-86.6250,5,97.63,6.55,18.31
13.748000,-86.5000,5,97.63,6.55,18.31
13.758000,-86.7500,5,97.63,6.55,18.31
13.768000,-86.6250,5,97.63,6.55,18.31
13.778000,-86.8750,5,97.63,6.55,18.31
13.788000,-85.8750,5,97.63,6.55,18.31
13.798000,-86.6250,5,97.63,6.55,18.31
13.808000,-86.6250,5,97.63,6.55,18.31
13.818000,-87.1250,5,97.63,6.55,18.31
13.828000,-86.7500,5,97.63,6.55,18.31
13.838000,-87.2500,5,97.63,6.55,18.31
13.848000,-87.7500,5,97.63,6.55,18.31
13.858000,-87.5000,5,97.63,6.55,18.31
13.868000,-82.2500,5,97.63,6.55,18.31
13.878000,-73.8750,5,97.63,6.55,18.31
13.888000,-71.0000,5,97.63,6.55,18.31
13.898000,-93.7500,5,97.63,6.55,18.31
13.908000,-82.7500,5,97.63,6.55,18.31
13.918000,-81.5000,5,97.63,6.55,18.31
13.928000,-73.6250,5,97.63,6.55,18.31
13.938000,-86.3750,5,97.63,6.55,18.31
13.948000,-87.0000,5,97.63,6.55,18.31
13.958000,-87.0000,5,97.63,6.55,18.31
13.968000,-87.5000,5,97.63,6.55,18.31
13.978000,-87.1250,5,97.63,6.55,18.31
13.988000,-87.3750,5,97.63,6.55,18.31
13.998000,-86.1250,5,97.63,6.55,18.31
14.008000,-87.2500,5,97.63,6.55,18.31
14.018000,-86.0000,5,97.63,6.55,18.31
14.028000,-87.1250,5,97.63,6.55,18.31
14.038000,-86.5000,5,97.63,6.55,18.31
14.048000,-86.0000,5,97.63,6.55,18.31
14.058000,-85.3750,5,97.63,6.55,18.31
14.068000,-86.0000,5,97.63,6.55,18.31
14.078000,-84.2500,5,97.63,6.55,18.31
14.088000,-72.3750,5,97.63,6.55,18.31
14.098000,-86.5000,5,97.63,6.55,18.31
14.108000,-94.2500,5,97.63,6.55,18.31
14.118000,-83.8750,5,97.63,6.55,18.31
14.128000,-84.0000,5,97.63,6.55,18.31
14.138000,-83.0000,5,97.63,6.55,18.31
14.148000,-82.8750,5,97.63,6.55,18.31
14.158000,-81.7500,5,97.63,6.55,18.31
14.168000,-81.3750,5,97.63,6.55,18.31
14.178000,-80.6250,5,97.63,6.55,18.31
14.188000,-75.7500,5,97.63,6.55,18.31
14.198000,-73.8750,5,97.63,6.55,18.31
14.208000,-74.8750,5,97.63,6.55,18.31
14.218000,-76.5000,5,97.63,6.55,18.31
14.228000,-79.1250,5,97.63,6.55,18.31
14.238000,-81.7500,5,97.63,6.55,18.31
14.248000,-83.6250,5,97.63,6.55,18.31
14.258000,-86.1250,5,97.63,6.55,18.31
14.268000,-87.2500,5,97.63,6.55,18.31
14.278000,-87.3750,5,97.63,6.55,18.31
14.288000,-87.7500,5,97.63,6.55,18.31
14.298000,-86.7500,5,97.63,6.55,18.31
14.308000,-87.2500,5,97.63,6.55,18.31
14.318000,-87.3750,5,97.63,6.55,18.31
14.328000,-87.0000,5,97.63,6.55,18.31
14.338000,-88.3750,5,97.63,6.55,18.31
14.348000,-86.7500,5,97.63,6.55,18.31
14.358000,-87.5000,5,97.63,6.55,18.31
14.368000,-86.2500,5,97.63,6.55,18.31
14.378000,-86.8750,5,97.63,6.55,18.31
14.388000,-86.3750,5,97.63,6.55,18.31
14.398000,-86.6250,5,97.63,6.55,18.31
14.408000,-85.8750,5,97.63,6.55,18.31
14.418000,-86.5000,5,97.63,6.55,18.31
14.428000,-86.2500,5,97.63,6.55,18.31
14.438000,-86.3750,5,97.63,6.55,18.31
14.448000,-86.3750,5,97.63,6.55,18.31
14.458000,-85.5000,5,97.63,6.55,18.31
14.468000,-86.0000,5,97.63,6.55,18.31
14.478000,-86.2500,5,97.63,6.55,18.31
14.488000,-85.7500,5,97.63,6.55,18.31
14.498000,-85.6250,5,97.63,6.55,18.31
14.508000,-85.6250,5,97.63,6.55,18.31
14.518000,-84.6250,5,97.63,6.55,18.31
14.528000,-86.1250,5,97.63,6.55,18.31
14.538000,-87.2500,5,97.63,6.55,18.31
14.548000,-88.1250,5,97.63,6.55,18.31
14.558000,-87.0000,5,97.63,6.55,18.31
14.568000,-88.3750,5,97.63,6.55,18.31
14.578000,-87.2500,5,97.63,6.55,18.31
14.588000,-87.3750,5,97.63,6.55,18.31
14.598000,-87.2500,5,97.63,6.55,18.31
14.608000,-85.1250,5,97.63,6.55,18.31
14.618000,-77.3750,5,97.63,6.55,18.31
14.628000,-71.8750,5,97.63,6.55,18.31
14.638000,-80.1250,5,97.63,6.55,18.31
14.648000,-98.0000,5,97.63,6.55,18.31
14.658000,-89.5000,5,97.63,6.55,18.31
14.668000,-85.0000,5,97.63,6.55,18.31
14.678000,-84.2500,5,97.63,6.55,18.31
14.688000,-83.7500,5,97.63,6.55,18.31
14.698000,-84.0000,5,97.63,6.55,18.31
14.708000,-83.3750,5,97.63,6.55,18.31
14.718000,-83.1250,5,97.63,6.55,18.31
14.728000,-82.6250,5,97.63,6.55,18.31
14.738000,-82.6250,5,97.63,6.55,18.31
14.748000,-81.5000,5,97.63,6.55,18.31
14.758000,-81.3750,5,97.63,6.55,18.31
14.768000,-79.5000,5,97.63,6.55,18.31
14.778000,-79.1250,5,97.63,6.55,18.31
14.788000,-77.0000,5,97.63,6.55,18.31
14.798000,-76.1250,7,103.94,8.41,3.64
14.808000,-74.2500,7,103.94,8.41,3.64
14.818000,-74.7500,7,103.94,8.41,3.64
14.828000,-74.1250,7,103.94,8.41,3.64
14.838000,-75.5000,7,103.94,8.41,3.64
14.848000,-76.2500,7,103.94,8.41,3.64
14.858000,-80.1250,7,103.94,8.41,3.64
14.868000,-81.6250,7,103.94,8.41,3.64
14.878000,-85.0000,7,103.94,8.41,3.64
14.888000,-84.7500,7,103.94,8.41,3.64
14.898000,-86.6250,7,103.94,8.41,3.64
14.908000,-85.8750,7,103.94,8.41,3.64
14.918000,-87.3750,7,103.94,8.41,3.64
14.928000,-86.6250,7,103.94,8.41,3.64
14.938000,-87.7500,7,103.94,8.41,3.64
14.948000,-86.7500,7,103.94,8.41,3.64
14.958000,-87.7500,7,103.94,8.41,3.64
14.968000,-86.5000,7,103.94,8.41,3.64
14.978000,-87.7500,7,103.94,8.41,3.64
14.988000,-86.5000,7,103.94,8.41,3.64
14.998000,-87.6250,7,103.94,8.41,3.64
15.008000,-86.3750,7,103.94,8.41,3.64
15.018000,-86.5000,7,103.94,8.41,3.64
15.028000,-85.3750,7,103.94,8.41,3.64
15.038000,-86.2500,7,103.94,8.41,3.64
15.048000,-84.8750,7,103.94,8.41,3.64
15.058000,-86.1250,7,103.94,8.41,3.64
15.068000,-85.3750,7,103.94,8.41,3.64
15.078000,-86.1250,7,103.94,8.41,3.64
15.088000,-85.7500,7,103.94,8.41,3.64
15.098000,-86.5000,7,103.94,8.41,3.64
15.108000,-85.5000,7,103.94,8.41,3.64
15.118000,-86.5000,7,103.94,8.41,3.64
15.128000,-84.8750,7,103.94,8.41,3.64
15.138000,-85.0000,7,103.94,8.41,3.64
15.148000,-84.7500,7,103.94,8.41,3.64
15.158000,-85.0000,7,103.94,8.41,3.64
15.168000,-84.5000,7,103.94,8.41,3.64
15.178000,-86.5000,7,103.94,8.41,3.64
15.188000,-86.1250,7,103.94,8.41,3.64
15.198000,-87.0000,7,103.94,8.41,3.64
15.208000,-87.0000,7,103.94,8.41,3.64
15.218000,-87.3750,7,103.94,8.41,3.64
15.228000,-86.8750,7,103.94,8.41,3.64
15.238000,-87.2500,7,103.94,8.41,3.64
15.248000,-87.0000,7,103.94,8.41,3.64
15.258000,-87.2500,7,103.94,8.41,3.64
15.268000,-86.6250,7,103.94,8.41,3.64
15.278000,-87.0000,7,103.94,8.41,3.64
15.288000,-86.3750,7,103.94,8.41,3.64
15.298000,-84.3750,7,103.94,8.41,3.64
15.308000,-76.0000,7,103.94,8.41,3.64
15.318000,-72.3750,7,103.94,8.41,3.64
15.328000,-76.0000,7,103.94,8.41,3.64
15.338000,-97.8750,7,103.94,8.41,3.64
15.348000,-89.5000,7,103.94,8.41,3.64
15.358000,-84.2500,7,103.94,8.41,3.64
15.368000,-83.8750,7,103.94,8.41,3.64
15.378000,-83.7500,7,103.94,8.41,3.64
15.388000,-83.3750,7,103.94,8.41,3.64
15.398000,-83.0000,7,103.94,8.41,3.64
15.408000,-81.8750,7,103.94,8.41,3.64
15.418000,-82.3750,7,103.94,8.41,3.64
15.428000,-81.3750,7,103.94,8.41,3.64
15.438000,-81.0000,7,103.94,8.41,3.64
15.448000,-80.1250,7,103.94,8.41,3.64
15.458000,-79.0000,7,103.94,8.41,3.64
15.468000,-77.8750,7,103.94,8.41,3.64
15.478000,-76.6250,7,103.94,8.41,3.64
15.488000,-75.5000,7,103.94,8.41,3.64
15.498000,-74.7500,7,103.94,8.41,3.64
15.508000,-73.8750,7,103.94,8.41,3.64
15.518000,-73.3750,7,103.94,8.41,3.64
15.528000,-73.8750,7,103.94,8.41,3.64
15.538000,-75.8750,7,103.94,8.41,3.64
15.548000,-78.8750,7,103.94,8.41,3.64
15.558000,-81.1250,7,103.94,8.41,3.64
15.568000,-83.5000,7,103.94,8.41,3.64
15.578000,-84.1250,7,103.94,8.41,3.64
15.588000,-86.1250,7,103.94,8.41,3.64
15.598000,-85.8750,7,103.94,8.41,3.64
15.608000,-87.0000,7,103.94,8.41,3.64
15.618000,-86.5000,7,103.94,8.41,3.64
15.628000,-87.2500,7,103.94,8.41,3.64
15.638000,-85.8750,7,103.94,8.41,3.64
15.648000,-87.6250,7,103.94,8.41,3.64
15.658000,-86.6250,7,103.94,8.41,3.64
15.668000,-87.5000,7,103.94,8.41,3.64
15.678000,-86.3750,7,103.94,8.41,3.64
15.688000,-86.5000,7,103.94,8.41,3.64
15.698000,-85.7500,7,103.94,8.41,3.64
15.708000,-86.5000,7,103.94,8.41,3.64
15.718000,-84.6250,7,103.94,8.41,3.64
15.728000,-86.1250,7,103.94,8.41,3.64
15.738000,-84.6250,7,103.94,8.41,3.64
15.748000,-86.1250,7,103.94,8.41,3.64
15.758000,-84.7500,7,103.94,8.41,3.64
15.768000,-86.3750,7,103.94,8.41,3.64
15.778000,-85.6250,7,103.94,8.41,3.64
15.788000,-85.7500,7,103.94,8.41,3.64
15.798000,-85.1250,7,103.94,8.41,3.64
15.808000,-85.5000,7,103.94,8.41,3.64
15.818000,-84.5000,7,103.94,8.41,3.64
15.828000,-85.0000,7,103.94,8.41,3.64
15.838000,-83.5000,7,103.94,8.41,3.64
15.848000,-85.5000,7,103.94,8.41,3.64
15.858000,-85.2500,7,103.94,8.41,3.64
15.868000,-86.5000,7,103.94,8.41,3.64
15.878000,-86.6250,7,103.94,8.41,3.64
15.888000,-87.7500,7,103.94,8.41,3.64
15.898000,-87.1250,7,103.94,8.41,3.64
15.908000,-88.1250,7,103.94,8.41,3.64
15.918000,-87.0000,7,103.94,8.41,3.64
15.928000,-87.5000,7,103.94,8.41,3.64
15.938000,-87.1250,7,103.94,8.41,3.64
15.948000,-87.6250,7,103.94,8.41,3.64
15.958000,-86.6250,7,103.94,8.41,3.64
15.968000,-85.3750,7,103.94,8.41,3.64
15.978000,-81.1250,7,103.94,8.41,3.64
15.988000,-72.3750,7,103.94,8.41,3.64
15.998000,-70.0000,7,103.94,8.41,3.64
16.008000,-90.8750,7,103.94,8.41,3.64
16.018000,-95.2500,7,103.94,8.41,3.64
16.028000,-86.1250,7,103.94,8.41,3.64
16.038000,-83.2500,7,103.94,8.41,3.64
16.048000,-84.1250,7,103.94,8.41,3.64
16.058000,-83.3750,7,103.94,8.41,3.64
16.068000,-83.3750,7,103.94,8.41,3.64
16.078000,-82.3750,7,103.94,8.41,3.64
16.088000,-82.6250,7,103.94,8.41,3.64
16.098000,-81.7500,7,103.94,8.41,3.64
16.108000,-80.5000,7,103.94,8.41,3.64
16.118000,-80.0000,7,103.94,8.41,3.64
16.128000,-79.0000,7,103.94,8.41,3.64
16.138000,-77.7500,7,103.94,8.41,3.64
16.148000,-75.8750,7,103.94,8.41,3.64
16.158000,-75.1250,7,103.94,8.41,3.64
16.168000,-73.6250,7,103.94,8.41,3.64
16.178000,-72.7500,7,103.94,8.41,3.64
16.188000,-72.6250,7,103.94,8.41,3.64
16.198000,-72.7500,7,103.94,8.41,3.64
16.208000,-74.1250,7,103.94,8.41,3.64
16.218000,-76.7500,7,103.94,8.41,3.64
16.228000,-80.2500,7,103.94,8.41,3.64
16.238000,-82.3750,7,103.94,8.41,3.64
16.248000,-84.6250,7,103.94,8.41,3.64
16.258000,-85.6250,7,103.94,8.41,3.64
16.268000,-86.6250,7,103.94,8.41,3.64
16.278000,-87.0000,7,103.94,8.41,3.64
16.288000,-86.8750,7,103.94,8.41,3.64
16.298000,-87.6250,7,103.94,8.41,3.64
16.308000,-87.2500,7,103.94,8.41,3.64
16.318000,-88.0000,7,103.94,8.41,3.64
16.328000,-86.6250,7,103.94,8.41,3.64
16.338000,-86.7500,7,103.94,8.41,3.64
16.348000,-86.2500,7,103.94,8.41,3.64
16.358000,-87.0000,7,103.94,8.41,3.64
16.368000,-86.0000,7,103.94,8.41,3.64
16.378000,-86.5000,7,103.94,8.41,3.64
16.388000,-85.7500,7,103.94,8.41,3.64
16.398000,-86.7500,7,103.94,8.41,3.64
16.408000,-85.7500,7,103.94,8.41,3.64
16.418000,-86.6250,7,103.94,8.41,3.64
16.428000,-85.7500,7,103.94,8.41,3.64
16.438000,-87.1250,7,103.94,8.41,3.64
16.448000,-85.7500,7,103.94,8.41,3.64
16.458000,-87.2500,7,103.94,8.41,3.64
16.468000,-85.7500,7,103.94,8.41,3.64
16.478000,-87.0000,7,103.94,8.41,3.64
16.488000,-85.8750,7,103.94,8.41,3.64
16.498000,-86.0000,7,103.94,8.41,3.64
16.508000,-84.6250,7,103.94,8.41,3.64
16.518000,-86.8750,7,103.94,8.41,3.64
16.528000,-87.5000,7,103.94,8.41,3.64
16.538000,-87.6250,7,103.94,8.41,3.64
16.548000,-85.7500,7,103.94,8.41,3.64
16.558000,-88.5000,7,103.94,8.41,3.64
16.568000,-81.0000,7,103.94,8.41,3.64
16.578000,-79.0000,7,103.94,8.41,3.64
16.588000,-77.6250,7,103.94,8.41,3.64
16.598000,-75.1250,7,103.94,8.41,3.64
16.608000,-74.1250,7,103.94,8.41,3.64
16.618000,-77.2500,7,103.94,8.41,3.64
16.628000,-81.7500,7,103.94,8.41,3.64
16.638000,-85.6250,7,103.94,8.41,3.64
16.648000,-86.6250,7,103.94,8.41,3.64
16.658000,-86.7500,7,103.94,8.41,3.64
16.668000,-87.7500,7,103.94,8.41,3.64
16.678000,-86.7500,7,103.94,8.41,3.64
16.688000,-87.7500,7,103.94,8.41,3.64
16.698000,-87.3750,7,103.94,8.41,3.64
16.708000,-88.0000,7,103.94,8.41,3.64
16.718000,-87.1250,7,103.94,8.41,3.64
16.728000,-87.6250,7,103.94,8.41,3.64
16.738000,-86.2500,7,103.94,8.41,3.64
16.748000,-87.1250,7,103.94,8.41,3.64
16.758000,-88.1250,7,103.94,8.41,3.64
16.768000,-87.2500,7,103.94,8.41,3.64
16.778000,-82.5000,7,103.94,8.41,3.64
16.788000,-79.3750,7,103.94,8.41,3.64
16.798000,-75.5000,7,103.94,8.41,3.64
16.808000,-76.0000,7,103.94,8.41,3.64
16.818000,-81.5000,7,103.94,8.41,3.64
16.828000,-85.2500,7,103.94,8.41,3.64
16.838000,-86.3750,7,103.94,8.41,3.64
16.848000,-87.6250,7,103.94,8.41,3.64
16.858000,-86.8750,7,103.94,8.41,3.64
16.868000,-86.8750,7,103.94,8.41,3.64
16.878000,-87.1250,7,103.94,8.41,3.64
16.888000,-86.3750,7,103.94,8.41,3.64
16.898000,-87.1250,7,103.94,8.41,3.64
16.908000,-85.8750,7,103.94,8.41,3.64
16.918000,-86.1250,7,103.94,8.41,3.64
16.928000,-85.3750,7,103.94,8.41,3.64
16.938000,-86.7500,7,103.94,8.41,3.64
16.948000,-85.2500,7,103.94,8.41,3.64
16.958000,-86.6250,7,103.94,8.41,3.64
16.968000,-85.6250,7,103.94,8.41,3.64
16.978000,-86.2500,7,103.94,8.41,3.64
16.988000,-85.5000,7,103.94,8.41,3.64
16.998000,-87.2500,7,103.94,8.41,3.64
17.008000,-86.8750,7,103.94,8.41,3.64
17.018000,-87.7500,7,103.94,8.41,3.64
17.028000,-84.8750,7,103.94,8.41,3.64
17.038000,-73.1250,7,103.94,8.41,3.64
17.048000,-91.3750,7,103.94,8.41,3.64
17.058000,-83.7500,7,103.94,8.41,3.64
17.068000,-82.7500,7,103.94,8.41,3.64
17.078000,-86.0000,7,103.94,8.41,3.64
17.088000,-85.8750,7,103.94,8.41,3.64
17.098000,-87.3750,7,103.94,8.41,3.64
17.108000,-86.6250,7,103.94,8.41,3.64
17.118000,-87.3750,7,103.94,8.41,3.64
17.128000,-86.1250,7,103.94,8.41,3.64
17.138000,-86.3750,7,103.94,8.41,3.64
17.148000,-85.2500,7,103.94,8.41,3.64
17.158000,-85.2500,7,103.94,8.41,3.64
17.168000,-86.6250,7,103.94,8.41,3.64
17.178000,-86.0000,7,103.94,8.41,3.64
17.188000,-85.8750,7,103.94,8.41,3.64
17.198000,-86.7500,7,103.94,8.41,3.64
17.208000,-85.2500,7,103.94,8.41,3.64
17.218000,-85.8750,7,103.94,8.41,3.64
17.228000,-84.7500,7,103.94,8.41,3.64
17.238000,-84.7500,7,103.94,8.41,3.64
17.248000,-83.8750,7,103.94,8.41,3.64
17.258000,-87.3750,7,103.94,8.41,3.64
17.268000,-87.7500,7,103.94,8.41,3.64
17.278000,-87.1250,7,103.94,8.41,3.64
17.288000,-87.7500,7,103.94,8.41,3.64
17.298000,-87.5000,7,103.94,8.41,3.64
17.308000,-87.5000,7,103.94,8.41,3.64
17.318000,-86.8750,7,103.94,8.41,3.64
17.328000,-85.8750,7,103.94,8.41,3.64
17.338000,-87.6250,7,103.94,8.41,3.64
17.348000,-88.2500,7,103.94,8.41,3.64
17.358000,-87.1250,7,103.94,8.41,3.64
17.368000,-85.8750,7,103.94,8.41,3.64
17.378000,-85.3750,7,103.94,8.41,3.64
17.388000,-86.7500,7,103.94,8.41,3.64
17.398000,-87.8750,7,103.94,8.41,3.64
17.408000,-88.1250,7,103.94,8.41,3.64
17.418000,-88.2500,7,103.94,8.41,3.64
17.428000,-87.6250,7,103.94,8.41,3.64
17.438000,-88.2500,7,103.94,8.41,3.64
17.448000,-87.6250,7,103.94,8.41,3.64
17.458000,-89.3750,7,103.94,8.41,3.64
17.468000,-84.0000,7,103.94,8.41,3.64
17.478000,-75.2500,7,103.94,8.41,3.64
17.488000,-75.3750,7,103.94,8.41,3.64
17.498000,-76.6250,7,103.94,8.41,3.64
17.508000,-83.8750,7,103.94,8.41,3.64
17.518000,-86.1250,7,103.94,8.41,3.64
17.528000,-87.0000,7,103.94,8.41,3.64
17.538000,-87.3750,7,103.94,8.41,3.64
17.548000,-87.3750,7,103.94,8.41,3.64
17.558000,-88.3750,7,103.94,8.41,3.64
17.568000,-87.8750,7,103.94,8.41,3.64
17.578000,-87.6250,7,103.94,8.41,3.64
17.588000,-87.8750,7,103.94,8.41,3.64
17.598000,-87.7500,7,103.94,8.41,3.64
17.608000,-86.3750,7,103.94,8.41,3.64
17.618000,-86.0000,7,103.94,8.41,3.64
17.628000,-86.8750,7,103.94,8.41,3.64
17.638000,-86.7500,7,103.94,8.41,3.64
17.648000,-88.1250,7,103.94,8.41,3.64
17.658000,-88.0000,7,103.94,8.41,3.64
17.668000,-88.3750,7,103.94,8.41,3.64
17.678000,-73.1250,7,103.94,8.41,3.64
17.688000,-91.5000,7,103.94,8.41,3.64
17.698000,-80.6250,7,103.94,8.41,3.64
17.708000,-78.7500,7,103.94,8.41,3.64
17.718000,-77.0000,7,103.94,8.41,3.64
17.728000,-75.6250,7,103.94,8.41,3.64
17.738000,-76.5000,7,103.94,8.41,3.64
17.748000,-79.7500,7,103.94,8.41,3.64
17.758000,-84.5000,7,103.94,8.41,3.64
17.768000,-85.1250,7,103.94,8.41,3.64
17.778000,-86.0000,7,103.94,8.41,3.64
17.788000,-87.6250,7,103.94,8.41,3.64
17.798000,-86.5000,7,103.94,8.41,3.64
17.808000,-86.0000,7,103.94,8.41,3.64
17.818000,-86.1250,7,103.94,8.41,3.64
17.828000,-86.3750,7,103.94,8.41,3.64
17.838000,-84.8750,7,103.94,8.41,3.64
17.848000,-86.6250,7,103.94,8.41,3.64
17.858000,-86.3750,7,103.94,8.41,3.64
17.868000,-86.8750,7,103.94,8.41,3.64
17.878000,-87.0000,7,103.94,8.41,3.64
17.888000,-86.5000,7,103.94,8.41,3.64
17.898000,-83.7500,7,103.94,8.41,3.64
17.908000,-73.3750,7,103.94,8.41,3.64
17.918000,-87.7500,7,103.94,8.41,3.64
17.928000,-94.6250,7,103.94,8.41,3.64
17.938000,-86.5000,7,103.94,8.41,3.64
17.948000,-82.2500,7,103.94,8.41,3.64
17.958000,-81.5000,7,103.94,8.41,3.64
17.968000,-78.1250,7,103.94,8.41,3.64
17.978000,-76.7500,7,103.94,8.41,3.64
17.988000,-86.3750,7,103.94,8.41,3.64
17.998000,-86.3750,7,103.94,8.41,3.64
18.008000,-86.7500,7,103.94,8.41,3.64
18.018000,-86.8750,7,103.94,8.41,3.64
18.028000,-85.8750,7,103.94,8.41,3.64
18.038000,-85.5000,7,103.94,8.41,3.64
18.048000,-86.2500,7,103.94,8.41,3.64
18.058000,-85.7500,7,103.94,8.41,3.64
18.068000,-86.0000,7,103.94,8.41,3.64
18.078000,-85.8750,7,103.94,8.41,3.64
18.088000,-86.7500,7,103.94,8.41,3.64
18.098000,-85.8750,7,103.94,8.41,3.64
18.108000,-86.6250,7,103.94,8.41,3.64
18.118000,-85.7500,7,103.94,8.41,3.64
18.128000,-86.0000,7,103.94,8.41,3.64
18.138000,-84.8750,7,103.94,8.41,3.64
18.148000,-85.1250,7,103.94,8.41,3.64
18.158000,-84.6250,7,103.94,8.41,3.64
18.168000,-85.1250,7,103.94,8.41,3.64
18.178000,-85.1250,7,103.94,8.41,3.64
18.188000,-87.2500,7,103.94,8.41,3.64
18.198000,-86.5000,7,103.94,8.41,3.64
18.208000,-87.2500,7,103.94,8.41,3.64
18.218000,-86.3750,7,103.94,8.41,3.64
18.228000,-87.0000,7,103.94,8.41,3.64
18.238000,-86.5000,7,103.94,8.41,3.64
18.248000,-87.7500,7,103.94,8.41,3.64
18.258000,-86.7500,7,103.94,8.41,3.64
18.268000,-87.0000,7,103.94,8.41,3.64
18.278000,-86.8750,7,103.94,8.41,3.64
18.288000,-84.0000,7,103.94,8.41,3.64
18.298000,-76.8750,7,103.94,8.41,3.64
18.308000,-71.7500,7,103.94,8.41,3.64
18.318000,-82.7500,7,103.94,8.41,3.64
18.328000,-99.0000,7,103.94,8.41,3.64
18.338000,-88.5000,7,103.94,8.41,3.64
18.348000,-84.2500,7,103.94,8.41,3.64
18.358000,-84.7500,7,103.94,8.41,3.64
18.368000,-83.8750,7,103.94,8.41,3.64
18.378000,-84.3750,7,103.94,8.41,3.64
18.388000,-83.5000,7,103.94,8.41,3.64
18.398000,-83.5000,7,103.94,8.41,3.64
18.408000,-81.8750,7,103.94,8.41,3.64
18.418000,-82.5000,7,103.94,8.41,3.64
18.428000,-79.3750,7,103.94,8.41,3.64
18.438000,-76.2500,7,103.94,8.41,3.64
18.448000,-77.0000,7,103.94,8.41,3.64
18.458000,-76.6250,7,103.94,8.41,3.64
18.468000,-76.5000,7,103.94,8.41,3.64
18.478000,-78.2500,7,103.94,8.41,3.64
18.488000,-79.6250,7,103.94,8.41,3.64
18.498000,-82.2500,7,103.94,8.41,3.64
18.508000,-84.2500,7,103.94,8.41,3.64
18.518000,-86.8750,7,103.94,8.41,3.64
18.528000,-86.7500,7,103.94,8.41,3.64
18.538000,-88.2500,7,103.94,8.41,3.64
18.548000,-87.8750,7,103.94,8.41,3.64
18.558000,-88.8750,7,103.94,8.41,3.64
18.568000,-88.1250,7,103.94,8.41,3.64
18.578000,-88.3750,7,103.94,8.41,3.64
18.588000,-88.0000,7,103.94,8.41,3.64
18.598000,-88.0000,7,103.94,8.41,3.64
18.608000,-87.8750,7,103.94,8.41,3.64
18.618000,-87.8750,7,103.94,8.41,3.64
18.628000,-87.6250,7,103.94,8.41,3.64
18.638000,-87.5000,7,103.94,8.41,3.64
18.648000,-87.6250,7,103.94,8.41,3.64
18.658000,-87.6250,7,103.94,8.41,3.64
18.668000,-87.3750,7,103.94,8.41,3.64
18.678000,-87.1250,7,103.94,8.41,3.64
18.688000,-87.1250,9,93.81,9.06,5.76
18.698000,-87.0000,9,93.81,9.06,5.76
18.708000,-87.3750,9,93.81,9.06,5.76
18.718000,-87.0000,9,93.81,9.06,5.76
18.728000,-87.6250,9,93.81,9.06,5.76
18.738000,-87.2500,9,93.81,9.06,5.76
18.748000,-87.6250,9,93.81,9.06,5.76
18.758000,-87.3750,9,93.81,9.06,5.76
18.768000,-88.1250,9,93.81,9.06,5.76
18.778000,-87.2500,9,93.81,9.06,5.76
18.788000,-87.8750,9,93.81,9.06,5.76
18.798000,-87.1250,9,93.81,9.06,5.76
18.808000,-87.5000,9,93.81,9.06,5.76
18.818000,-87.2500,9,93.81,9.06,5.76
18.828000,-88.1250,9,93.81,9.06,5.76
18.838000,-87.1250,9,93.81,9.06,5.76
18.848000,-87.2500,9,93.81,9.06,5.76
18.858000,-86.5000,9,93.81,9.06,5.76
18.868000,-86.3750,9,93.81,9.06,5.76
18.878000,-85.7500,9,93.81,9.06,5.76
18.888000,-85.7500,9,93.81,9.06,5.76
18.898000,-85.3750,9,93.81,9.06,5.76
18.908000,-86.3750,9,93.81,9.06,5.76
18.918000,-86.3750,9,93.81,9.06,5.76
18.928000,-87.3750,9,93.81,9.06,5.76
18.938000,-87.5000,9,93.81,9.06,5.76
18.948000,-87.6250,9,93.81,9.06,5.76
18.958000,-87.3750,9,93.81,9.06,5.76
18.968000,-87.8750,9,93.81,9.06,5.76
18.978000,-87.5000,9,93.81,9.06,5.76
18.988000,-88.7500,9,93.81,9.06,5.76
18.998000,-87.3750,9,93.81,9.06,5.76
19.008000,-88.1250,9,93.81,9.06,5.76
19.018000,-87.2500,9,93.81,9.06,5.76
19.028000,-88.1250,9,93.81,9.06,5.76
19.038000,-83.7500,9,93.81,9.06,5.76
19.048000,-75.7500,9,93.81,9.06,5.76
19.058000,-71.6250,9,93.81,9.06,5.76
19.068000,-86.7500,9,93.81,9.06,5.76
19.078000,-99.7500,9,93.81,9.06,5.76
19.088000,-88.8750,9,93.81,9.06,5.76
19.098000,-84.2500,9,93.81,9.06,5.76
19.108000,-85.0000,9,93.81,9.06,5.76
19.118000,-84.3750,9,93.81,9.06,5.76
19.128000,-84.5000,9,93.81,9.06,5.76
19.138000,-83.2500,9,93.81,9.06,5.76
19.148000,-83.2500,9,93.81,9.06,5.76
19.158000,-82.1250,9,93.81,9.06,5.76
19.168000,-81.8750,9,93.81,9.06,5.76
19.178000,-81.0000,9,93.81,9.06,5.76
19.188000,-80.6250,9,93.81,9.06,5.76
19.198000,-79.2500,9,93.81,9.06,5.76
19.208000,-78.8750,9,93.81,9.06,5.76
19.218000,-76.3750,9,93.81,9.06,5.76
19.228000,-75.2500,9,93.81,9.06,5.76
19.238000,-74.0000,9,93.81,9.06,5.76
19.248000,-73.7500,9,93.81,9.06,5.76
19.258000,-73.3750,9,93.81,9.06,5.76
19.268000,-75.2500,9,93.81,9.06,5.76
19.278000,-75.6250,9,93.81,9.06,5.76
19.288000,-79.3750,9,93.81,9.06,5.76
19.298000,-81.7500,9,93.81,9.06,5.76
19.308000,-84.2500,9,93.81,9.06,5.76
19.318000,-85.0000,9,93.81,9.06,5.76
19.328000,-85.7500,9,93.81,9.06,5.76
19.338000,-86.2500,9,93.81,9.06,5.76
19.348000,-87.0000,9,93.81,9.06,5.76
19.358000,-86.8750,9,93.81,9.06,5.76
19.368000,-87.2500,9,93.81,9.06,5.76
19.378000,-86.6250,9,93.81,9.06,5.76
19.388000,-87.0000,9,93.81,9.06,5.76
19.398000,-86.3750,9,93.81,9.06,5.76
19.408000,-86.7500,9,93.81,9.06,5.76
19.418000,-86.6250,9,93.81,9.06,5.76
19.428000,-86.5000,9,93.81,9.06,5.76
19.438000,-85.1250,9,93.81,9.06,5.76
19.448000,-86.3750,9,93.81,9.06,5.76
19.458000,-86.0000,9,93.81,9.06,5.76
19.468000,-86.3750,9,93.81,9.06,5.76
19.478000,-86.2500,9,93.81,9.06,5.76
19.488000,-85.7500,9,93.81,9.06,5.76
19.498000,-86.5000,9,93.81,9.06,5.76
19.508000,-86.3750,9,93.81,9.06,5.76
19.518000,-86.2500,9,93.81,9.06,5.76
19.528000,-86.5000,9,93.81,9.06,5.76
19.538000,-86.6250,9,93.81,9.06,5.76
19.548000,-86.2500,9,93.81,9.06,5.76
19.558000,-86.7500,9,93.81,9.06,5.76
19.568000,-86.7500,9,93.81,9.06,5.76
19.578000,-87.0000,9,93.81,9.06,5.76
19.588000,-86.6250,9,93.81,9.06,5.76
19.598000,-87.1250,9,93.81,9.06,5.76
19.608000,-86.3750,9,93.81,9.06,5.76
19.618000,-86.7500,9,93.81,9.06,5.76
19.628000,-86.2500,9,93.81,9.06,5.76
19.638000,-87.0000,9,93.81,9.06,5.76
19.648000,-86.2500,9,93.81,9.06,5.76
19.658000,-86.7500,9,93.81,9.06,5.76
19.668000,-86.5000,9,93.81,9.06,5.76
19.678000,-86.6250,9,93.81,9.06,5.76
19.688000,-85.5000,9,93.81,9.06,5.76
19.698000,-85.3750,9,93.81,9.06,5.76
19.708000,-85.0000,9,93.81,9.06,5.76
19.718000,-85.1250,9,93.81,9.06,5.76
19.728000,-85.0000,9,93.81,9.06,5.76
19.738000,-85.8750,9,93.81,9.06,5.76
19.748000,-86.2500,9,93.81,9.06,5.76
19.758000,-87.7500,9,93.81,9.06,5.76
19.768000,-86.7500,9,93.81,9.06,5.76
19.778000,-87.6250,9,93.81,9.06,5.76
19.788000,-87.7500,9,93.81,9.06,5.76
19.798000,-88.0000,9,93.81,9.06,5.76
19.808000,-87.2500,9,93.81,9.06,5.76
19.818000,-87.6250,9,93.81,9.06,5.76
19.828000,-87.3750,9,93.81,9.06,5.76
19.838000,-88.1250,9,93.81,9.06,5.76
19.848000,-86.7500,9,93.81,9.06,5.76
19.858000,-85.0000,9,93.81,9.06,5.76
19.868000,-76.6250,9,93.81,9.06,5.76
19.878000,-72.2500,9,93.81,9.06,5.76
19.888000,-78.3750,9,93.81,9.06,5.76
19.898000,-99.1250,9,93.81,9.06,5.76
19.908000,-89.3750,9,93.81,9.06,5.76
19.918000,-84.8750,9,93.81,9.06,5.76
19.928000,-83.3750,9,93.81,9.06,5.76
19.938000,-84.2500,9,93.81,9.06,5.76
19.948000,-83.3750,9,93.81,9.06,5.76
19.958000,-83.8750,9,93.81,9.06,5.76
19.968000,-81.7500,9,93.81,9.06,5.76
19.978000,-82.2500,9,93.81,9.06,5.76
19.988000,-81.5000,9,93.81,9.06,5.76
19.998000,-81.3750,9,93.81,9.06,5.76
20.008000,-79.5000,9,93.81,9.06,5.76
20.018000,-79.6250,9,93.81,9.06,5.76
20.028000,-77.6250,9,93.81,9.06,5.76
20.038000,-77.1250,9,93.81,9.06,5.76
20.048000,-76.1250,9,93.81,9.06,5.76
20.058000,-74.5000,9,93.81,9.06,5.76
20.068000,-73.8750,9,93.81,9.06,5.76
20.078000,-73.6250,9,93.81,9.06,5.76
20.088000,-75.1250,9,93.81,9.06,5.76
20.098000,-76.7500,9,93.81,9.06,5.76
20.108000,-78.7500,9,93.81,9.06,5.76
20.118000,-81.6250,9,93.81,9.06,5.76
20.128000,-83.1250,9,93.81,9.06,5.76
20.138000,-85.3750,9,93.81,9.06,5.76
20.148000,-86.0000,9,93.81,9.06,5.76
20.158000,-87.2500,9,93.81,9.06,5.76
20.168000,-87.1250,9,93.81,9.06,5.76
20.178000,-87.2500,9,93.81,9.06,5.76
20.188000,-86.7500,9,93.81,9.06,5.76
20.198000,-87.3750,9,93.81,9.06,5.76
20.208000,-86.8750,9,93.81,9.06,5.76
20.218000,-86.6250,9,93.81,9.06,5.76
20.228000,-87.3750,9,93.81,9.06,5.76
20.238000,-87.1250,9,93.81,9.06,5.76
20.248000,-86.3750,9,93.81,9.06,5.76
20.258000,-86.6250,9,93.81,9.06,5.76
20.268000,-86.2500,9,93.81,9.06,5.76
20.278000,-86.5000,9,93.81,9.06,5.76
20.288000,-86.2500,9,93.81,9.06,5.76
20.298000,-86.1250,9,93.81,9.06,5.76
20.308000,-86.0000,9,93.81,9.06,5.76
20.318000,-85.6250,9,93.81,9.06,5.76
20.328000,-85.6250,9,93.81,9.06,5.76
20.338000,-86.0000,9,93.81,9.06,5.76
20.348000,-86.2500,9,93.81,9.06,5.76
20.358000,-86.2500,9,93.81,9.06,5.76
20.368000,-86.6250,9,93.81,9.06,5.76
20.378000,-86.0000,9,93.81,9.06,5.76
20.388000,-87.2500,9,93.81,9.06,5.76
20.398000,-86.5000,9,93.81,9.06,5.76
20.408000,-85.8750,9,93.81,9.06,5.76
20.418000,-85.2500,9,93.81,9.06,5.76
20.428000,-86.1250,9,93.81,9.06,5.76
20.438000,-87.2500,9,93.81,9.06,5.76
20.448000,-87.0000,9,93.81,9.06,5.76
20.458000,-87.7500,9,93.81,9.06,5.76
20.468000,-84.2500,9,93.81,9.06,5.76
20.478000,-83.3750,9,93.81,9.06,5.76
20.488000,-82.5000,9,93.81,9.06,5.76
20.498000,-80.5000,9,93.81,9.06,5.76
20.508000,-78.3750,9,93.81,9.06,5.76
20.518000,-75.8750,9,93.81,9.06,5.76
20.528000,-74.5000,9,93.81,9.06,5.76
20.538000,-73.3750,9,93.81,9.06,5.76
20.548000,-73.5000,9,93.81,9.06,5.76
20.558000,-74.5000,9,93.81,9.06,5.76
20.568000,-75.3750,9,93.81,9.06,5.76
20.578000,-78.6250,9,93.81,9.06,5.76
20.588000,-81.0000,9,93.81,9.06,5.76
20.598000,-85.8750,9,93.81,9.06,5.76
20.608000,-86.5000,9,93.81,9.06,5.76
20.618000,-86.1250,9,93.81,9.06,5.76
20.628000,-86.0000,9,93.81,9.06,5.76
20.638000,-86.0000,9,93.81,9.06,5.76
20.648000,-85.1250,9,93.81,9.06,5.76
20.658000,-86.5000,9,93.81,9.06,5.76
20.668000,-86.2500,9,93.81,9.06,5.76
20.678000,-86.6250,9,93.81,9.06,5.76
20.688000,-70.2500,9,93.81,9.06,5.76
20.698000,-87.7500,9,93.81,9.06,5.76
20.708000,-83.0000,9,93.81,9.06,5.76
20.718000,-82.1250,9,93.81,9.06,5.76
20.728000,-80.5000,9,93.81,9.06,5.76
20.738000,-79.6250,9,93.81,9.06,5.76
20.748000,-79.2500,9,93.81,9.06,5.76
20.758000,-77.5000,9,93.81,9.06,5.76
20.768000,-77.1250,9,93.81,9.06,5.76
20.778000,-75.2500,9,93.81,9.06,5.76
20.788000,-74.1250,9,93.81,9.06,5.76
20.798000,-72.5000,9,93.81,9.06,5.76
20.808000,-71.8750,9,93.81,9.06,5.76
20.818000,-71.0000,9,93.81,9.06,5.76
20.828000,-71.3750,9,93.81,9.06,5.76
20.838000,-73.2500,9,93.81,9.06,5.76
20.848000,-84.3750,9,93.81,9.06,5.76
20.858000,-86.3750,9,93.81,9.06,5.76
20.868000,-85.3750,9,93.81,9.06,5.76
20.878000,-85.8750,9,93.81,9.06,5.76
20.888000,-85.8750,9,93.81,9.06,5.76
20.898000,-84.8750,9,93.81,9.06,5.76
20.908000,-85.0000,9,93.81,9.06,5.76
20.918000,-84.7500,9,93.81,9.06,5.76
20.928000,-85.8750,9,93.81,9.06,5.76
20.938000,-86.2500,9,93.81,9.06,5.76
20.948000,-85.0000,9,93.81,9.06,5.76
20.958000,-71.5000,9,93.81,9.06,5.76
20.968000,-101.0000,9,93.81,9.06,5.76
20.978000,-86.8750,9,93.81,9.06,5.76
20.988000,-82.6250,9,93.81,9.06,5.76
20.998000,-84.6250,9,93.81,9.06,5.76
21.008000,-82.0000,9,93.81,9.06,5.76
21.018000,-79.7500,9,93.81,9.06,5.76
21.028000,-78.7500,9,93.81,9.06,5.76
21.038000,-77.3750,9,93.81,9.06,5.76
21.048000,-74.7500,9,93.81,9.06,5.76
21.058000,-71.1250,9,93.81,9.06,5.76
21.068000,-75.7500,9,93.81,9.06,5.76
21.078000,-86.2500,9,93.81,9.06,5.76
21.088000,-86.2500,9,93.81,9.06,5.76
21.098000,-87.6250,9,93.81,9.06,5.76
21.108000,-86.2500,9,93.81,9.06,5.76
21.118000,-87.0000,9,93.81,9.06,5.76
21.128000,-87.2500,9,93.81,9.06,5.76
21.138000,-87.2500,9,93.81,9.06,5.76
21.148000,-87.5000,9,93.81,9.06,5.76
21.158000,-85.6250,9,93.81,9.06,5.76
21.168000,-87.7500,9,93.81,9.06,5.76
21.178000,-88.0000,9,93.81,9.06,5.76
21.188000,-88.5000,9,93.81,9.06,5.76
21.198000,-87.7500,9,93.81,9.06,5.76
21.208000,-87.3750,9,93.81,9.06,5.76
21.218000,-88.1250,9,93.81,9.06,5.76
21.228000,-88.7500,9,93.81,9.06,5.76
21.238000,-87.0000,9,93.81,9.06,5.76
21.248000,-86.0000,9,93.81,9.06,5.76
21.258000,-74.7500,9,93.81,9.06,5.76
21.268000,-73.5000,9,93.81,9.06,5.76
21.278000,-97.3750,9,93.81,9.06,5.76
21.288000,-82.7500,9,93.81,9.06,5.76
21.298000,-82.8750,9,93.81,9.06,5.76
21.308000,-82.0000,9,93.81,9.06,5.76
21.318000,-81.0000,9,93.81,9.06,5.76
21.328000,-77.7500,9,93.81,9.06,5.76
21.338000,-78.3750,9,93.81,9.06,5.76
21.348000,-75.0000,9,93.81,9.06,5.76
21.358000,-73.5000,9,93.81,9.06,5.76
21.368000,-81.7500,9,93.81,9.06,5.76
21.378000,-86.8750,9,93.81,9.06,5.76
21.388000,-86.2500,9,93.81,9.06,5.76
21.398000,-86.3750,9,93.81,9.06,5.76
21.408000,-85.5000,9,93.81,9.06,5.76
21.418000,-86.0000,9,93.81,9.06,5.76
21.428000,-87.0000,9,93.81,9.06,5.76
21.438000,-85.5000,9,93.81,9.06,5.76
21.448000,-87.0000,9,93.81,9.06,5.76
21.458000,-85.8750,9,93.81,9.06,5.76
21.468000,-83.5000,9,93.81,9.06,5.76
21.478000,-85.5000,9,93.81,9.06,5.76
21.488000,-86.6250,9,93.81,9.06,5.76
21.498000,-83.5000,9,93.81,9.06,5.76
21.508000,-70.6250,9,93.81,9.06,5.76
21.518000,-98.1250,9,93.81,9.06,5.76
21.528000,-84.8750,9,93.81,9.06,5.76
21.538000,-82.8750,9,93.81,9.06,5.76
21.548000,-84.7500,9,93.81,9.06,5.76
21.558000,-81.2500,9,93.81,9.06,5.76
21.568000,-79.7500,9,93.81,9.06,5.76
21.578000,-73.8750,9,93.81,9.06,5.76
21.588000,-78.1250,9,93.81,9.06,5.76
21.598000,-87.3750,9,93.81,9.06,5.76
21.608000,-85.5000,9,93.81,9.06,5.76
21.618000,-86.0000,9,93.81,9.06,5.76
21.628000,-85.8750,9,93.81,9.06,5.76
21.638000,-86.5000,9,93.81,9.06,5.76
21.648000,-85.6250,9,93.81,9.06,5.76
21.658000,-86.0000,9,93.81,9.06,5.76
21.668000,-85.8750,9,93.81,9.06,5.76
21.678000,-84.2500,9,93.81,9.06,5.76
21.688000,-85.5000,9,93.81,9.06,5.76
21.698000,-85.8750,9,93.81,9.06,5.76
21.708000,-83.8750,9,93.81,9.06,5.76
21.718000,-88.7500,9,93.81,9.06,5.76
21.728000,-88.6250,9,93.81,9.06,5.76
21.738000,-83.5000,9,93.81,9.06,5.76
21.748000,-71.3750,9,93.81,9.06,5.76
21.758000,-96.8750,9,93.81,9.06,5.76
21.768000,-83.7500,9,93.81,9.06,5.76
21.778000,-82.3750,9,93.81,9.06,5.76
21.788000,-80.3750,9,93.81,9.06,5.76
21.798000,-79.0000,9,93.81,9.06,5.76
21.808000,-76.7500,9,93.81,9.06,5.76
21.818000,-76.1250,9,93.81,9.06,5.76
21.828000,-73.1250,9,93.81,9.06,5.76
21.838000,-82.8750,9,93.81,9.06,5.76
21.848000,-86.1250,9,93.81,9.06,5.76
21.858000,-87.0000,9,93.81,9.06,5.76
21.868000,-87.5000,9,93.81,9.06,5.76
21.878000,-85.3750,9,93.81,9.06,5.76
21.888000,-86.3750,9,93.81,9.06,5.76
21.898000,-86.1250,9,93.81,9.06,5.76
21.908000,-86.3750,9,93.81,9.06,5.76
21.918000,-87.7500,9,93.81,9.06,5.76
21.928000,-85.6250,9,93.81,9.06,5.76
21.938000,-87.8750,9,93.81,9.06,5.76
21.948000,-86.2500,9,93.81,9.06,5.76
21.958000,-87.8750,9,93.81,9.06,5.76
21.968000,-84.5000,9,93.81,9.06,5.76
21.978000,-84.2500,9,93.81,9.06,5.76
21.988000,-86.2500,9,93.81,9.06,5.76
21.998000,-85.6250,9,93.81,9.06,5.76
22.008000,-87.6250,9,93.81,9.06,5.76
22.018000,-86.7500,9,93.81,9.06,5.76
22.028000,-88.5000,9,93.81,9.06,5.76
22.038000,-87.3750,9,93.81,9.06,5.76
22.048000,-86.2500,9,93.81,9.06,5.76
22.058000,-87.8750,9,93.81,9.06,5.76
22.068000,-88.3750,9,93.81,9.06,5.76
22.078000,-87.2500,9,93.81,9.06,5.76
22.088000,-88.1250,9,93.81,9.06,5.76
22.098000,-85.3750,9,93.81,9.06,5.76
22.108000,-84.3750,9,93.81,9.06,5.76
22.118000,-72.3750,9,93.81,9.06,5.76
22.128000,-76.8750,9,93.81,9.06,5.76
22.138000,-97.8750,9,93.81,9.06,5.76
22.148000,-93.8750,9,93.81,9.06,5.76
22.158000,-84.7500,9,93.81,9.06,5.76
22.168000,-84.7500,9,93.81,9.06,5.76
22.178000,-84.0000,9,93.81,9.06,5.76
22.188000,-84.8750,9,93.81,9.06,5.76
22.198000,-83.1250,9,93.81,9.06,5.76
22.208000,-83.1250,9,93.81,9.06,5.76
22.218000,-83.0000,9,93.81,9.06,5.76
22.228000,-84.2500,9,93.81,9.06,5.76
22.238000,-81.1250,9,93.81,9.06,5.76
22.248000,-80.6250,9,93.81,9.06,5.76
22.258000,-78.8750,9,93.81,9.06,5.76
22.268000,-74.6250,9,93.81,9.06,5.76
22.278000,-77.5000,9,93.81,9.06,5.76
22.288000,-74.8750,9,93.81,9.06,5.76
22.298000,-75.6250,9,93.81,9.06,5.76
22.308000,-73.0000,9,93.81,9.06,5.76
22.318000,-74.8750,9,93.81,9.06,5.76
22.328000,-73.2500,9,93.81,9.06,5.76
22.338000,-79.5000,9,93.81,9.06,5.76
22.348000,-85.5000,9,93.81,9.06,5.76
22.358000,-85.1250,9,93.81,9.06,5.76
22.368000,-84.7500,9,93.81,9.06,5.76
22.378000,-85.1250,9,93.81,9.06,5.76
22.388000,-86.7500,9,93.81,9.06,5.76
22.398000,-88.2500,9,93.81,9.06,5.76
22.408000,-86.3750,9,93.81,9.06,5.76
22.418000,-88.1250,9,93.81,9.06,5.76
22.428000,-86.6250,9,93.81,9.06,5.76
22.438000,-87.7500,9,93.81,9.06,5.76
22.448000,-86.2500,9,93.81,9.06,5.76
22.458000,-88.0000,9,93.81,9.06,5.76
22.468000,-86.2500,9,93.81,9.06,5.76
22.478000,-87.6250,9,93.81,9.06,5.76
22.488000,-85.8750,9,93.81,9.06,5.76
22.498000,-87.0000,11,96.46,6.92,15.52
22.508000,-85.8750,11,96.46,6.92,15.52
22.518000,-87.1250,11,96.46,6.92,15.52
22.528000,-87.0000,11,96.46,6.92,15.52
22.538000,-87.0000,11,96.46,6.92,15.52
22.548000,-86.6250,11,96.46,6.92,15.52
22.558000,-87.3750,11,96.46,6.92,15.52
22.568000,-86.8750,11,96.46,6.92,15.52
22.578000,-87.1250,11,96.46,6.92,15.52
22.588000,-87.3750,11,96.46,6.92,15.52
22.598000,-88.1250,11,96.46,6.92,15.52
22.608000,-87.5000,11,96.46,6.92,15.52
22.618000,-87.8750,11,96.46,6.92,15.52
22.628000,-87.1250,11,96.46,6.92,15.52
22.638000,-87.6250,11,96.46,6.92,15.52
22.648000,-87.8750,11,96.46,6.92,15.52
22.658000,-87.1250,11,96.46,6.92,15.52
22.668000,-86.8750,11,96.46,6.92,15.52
22.678000,-86.6250,11,96.46,6.92,15.52
22.688000,-86.5000,11,96.46,6.92,15.52
22.698000,-85.5000,11,96.46,6.92,15.52
22.708000,-86.5000,11,96.46,6.92,15.52
22.718000,-85.7500,11,96.46,6.92,15.52
22.728000,-87.1250,11,96.46,6.92,15.52
22.738000,-87.2500,11,96.46,6.92,15.52
22.748000,-88.7500,11,96.46,6.92,15.52
22.758000,-86.7500,11,96.46,6.92,15.52
22.768000,-88.6250,11,96.46,6.92,15.52
22.778000,-86.7500,11,96.46,6.92,15.52
22.788000,-89.6250,11,96.46,6.92,15.52
22.798000,-87.7500,11,96.46,6.92,15.52
22.808000,-88.3750,11,96.46,6.92,15.52
22.818000,-86.7500,11,96.46,6.92,15.52
22.828000,-88.7500,11,96.46,6.92,15.52
22.838000,-84.3750,11,96.46,6.92,15.52
22.848000,-82.1250,11,96.46,6.92,15.52
22.858000,-72.3750,11,96.46,6.92,15.52
22.868000,-76.1250,11,96.46,6.92,15.52
22.878000,-94.2500,11,96.46,6.92,15.52
22.888000,-96.1250,11,96.46,6.92,15.52
22.898000,-84.5000,11,96.46,6.92,15.52
22.908000,-85.7500,11,96.46,6.92,15.52
22.918000,-84.0000,11,96.46,6.92,15.52
22.928000,-83.1250,11,96.46,6.92,15.52
22.938000,-83.6250,11,96.46,6.92,15.52
22.948000,-84.8750,11,96.46,6.92,15.52
22.958000,-81.2500,11,96.46,6.92,15.52
22.968000,-83.3750,11,96.46,6.92,15.52
22.978000,-81.0000,11,96.46,6.92,15.52
22.988000,-82.3750,11,96.46,6.92,15.52
22.998000,-79.3750,11,96.46,6.92,15.52
23.008000,-79.6250,11,96.46,6.92,15.52
23.018000,-76.1250,11,96.46,6.92,15.52
23.028000,-77.1250,11,96.46,6.92,15.52
23.038000,-73.1250,11,96.46,6.92,15.52
23.048000,-74.2500,11,96.46,6.92,15.52
23.058000,-72.1250,11,96.46,6.92,15.52
23.068000,-75.1250,11,96.46,6.92,15.52
23.078000,-76.0000,11,96.46,6.92,15.52
23.088000,-79.1250,11,96.46,6.92,15.52
23.098000,-77.7500,11,96.46,6.92,15.52
23.108000,-84.2500,11,96.46,6.92,15.52
23.118000,-83.7500,11,96.46,6.92,15.52
23.128000,-87.2500,11,96.46,6.92,15.52
23.138000,-85.6250,11,96.46,6.92,15.52
23.148000,-88.1250,11,96.46,6.92,15.52
23.158000,-87.0000,11,96.46,6.92,15.52
23.168000,-88.2500,11,96.46,6.92,15.52
23.178000,-86.8750,11,96.46,6.92,15.52
23.188000,-88.2500,11,96.46,6.92,15.52
23.198000,-86.6250,11,96.46,6.92,15.52
23.208000,-88.3750,11,96.46,6.92,15.52
23.218000,-86.7500,11,96.46,6.92,15.52
23.228000,-87.8750,11,96.46,6.92,15.52
23.238000,-86.5000,11,96.46,6.92,15.52
23.248000,-87.7500,11,96.46,6.92,15.52
23.258000,-86.7500,11,96.46,6.92,15.52
23.268000,-87.2500,11,96.46,6.92,15.52
23.278000,-86.5000,11,96.46,6.92,15.52
23.288000,-87.7500,11,96.46,6.92,15.52
23.298000,-86.5000,11,96.46,6.92,15.52
23.308000,-86.6250,11,96.46,6.92,15.52
23.318000,-86.7500,11,96.46,6.92,15.52
23.328000,-86.6250,11,96.46,6.92,15.52
23.338000,-86.8750,11,96.46,6.92,15.52
23.348000,-86.7500,11,96.46,6.92,15.52
23.358000,-87.3750,11,96.46,6.92,15.52
23.368000,-87.1250,11,96.46,6.92,15.52
23.378000,-87.8750,11,96.46,6.92,15.52
23.388000,-87.2500,11,96.46,6.92,15.52
23.398000,-88.0000,11,96.46,6.92,15.52
23.408000,-87.5000,11,96.46,6.92,15.52
23.418000,-87.7500,11,96.46,6.92,15.52
23.428000,-86.5000,11,96.46,6.92,15.52
23.438000,-87.7500,11,96.46,6.92,15.52
23.448000,-87.0000,11,96.46,6.92,15.52
23.458000,-87.7500,11,96.46,6.92,15.52
23.468000,-86.7500,11,96.46,6.92,15.52
23.478000,-87.7500,11,96.46,6.92,15.52
23.488000,-86.8750,11,96.46,6.92,15.52
23.498000,-88.1250,11,96.46,6.92,15.52
23.508000,-85.6250,11,96.46,6.92,15.52
23.518000,-87.2500,11,96.46,6.92,15.52
23.528000,-84.5000,11,96.46,6.92,15.52
23.538000,-86.7500,11,96.46,6.92,15.52
23.548000,-83.8750,11,96.46,6.92,15.52
23.558000,-86.1250,11,96.46,6.92,15.52
23.568000,-84.6250,11,96.46,6.92,15.52
23.578000,-87.7500,11,96.46,6.92,15.52
23.588000,-86.3750,11,96.46,6.92,15.52
23.598000,-88.5000,11,96.46,6.92,15.52
23.608000,-85.8750,11,96.46,6.92,15.52
23.618000,-88.6250,11,96.46,6.92,15.52
23.628000,-86.6250,11,96.46,6.92,15.52
23.638000,-88.3750,11,96.46,6.92,15.52
23.648000,-85.8750,11,96.46,6.92,15.52
23.658000,-88.6250,11,96.46,6.92,15.52
23.668000,-85.7500,11,96.46,6.92,15.52
23.678000,-88.3750,11,96.46,6.92,15.52
23.688000,-84.5000,11,96.46,6.92,15.52
23.698000,-83.1250,11,96.46,6.92,15.52
23.708000,-71.1250,11,96.46,6.92,15.52
23.718000,-73.2500,11,96.46,6.92,15.52
23.728000,-91.1250,11,96.46,6.92,15.52
23.738000,-99.5000,11,96.46,6.92,15.52
23.748000,-84.7500,11,96.46,6.92,15.52
23.758000,-85.1250,11,96.46,6.92,15.52
23.768000,-82.8750,11,96.46,6.92,15.52
23.778000,-84.5000,11,96.46,6.92,15.52
23.788000,-82.2500,11,96.46,6.92,15.52
23.798000,-83.8750,11,96.46,6.92,15.52
23.808000,-81.0000,11,96.46,6.92,15.52
23.818000,-82.8750,11,96.46,6.92,15.52
23.828000,-80.2500,11,96.46,6.92,15.52
23.838000,-81.1250,11,96.46,6.92,15.52
23.848000,-79.0000,11,96.46,6.92,15.52
23.858000,-79.2500,11,96.46,6.92,15.52
23.868000,-75.5000,11,96.46,6.92,15.52
23.878000,-76.0000,11,96.46,6.92,15.52
23.888000,-73.0000,11,96.46,6.92,15.52
23.898000,-73.3750,11,96.46,6.92,15.52
23.908000,-71.6250,11,96.46,6.92,15.52
23.918000,-72.6250,11,96.46,6.92,15.52
23.928000,-73.1250,11,96.46,6.92,15.52
23.938000,-76.2500,11,96.46,6.92,15.52
23.948000,-78.6250,11,96.46,6.92,15.52
23.958000,-82.1250,11,96.46,6.92,15.52
23.968000,-83.1250,11,96.46,6.92,15.52
23.978000,-85.8750,11,96.46,6.92,15.52
23.988000,-85.5000,11,96.46,6.92,15.52
23.998000,-86.7500,11,96.46,6.92,15.52
24.008000,-86.8750,11,96.46,6.92,15.52
24.018000,-86.8750,11,96.46,6.92,15.52
24.028000,-86.5000,11,96.46,6.92,15.52
24.038000,-87.3750,11,96.46,6.92,15.52
24.048000,-87.0000,11,96.46,6.92,15.52
24.058000,-87.2500,11,96.46,6.92,15.52
24.068000,-87.0000,11,96.46,6.92,15.52
24.078000,-87.7500,11,96.46,6.92,15.52
24.088000,-86.2500,11,96.46,6.92,15.52
24.098000,-86.7500,11,96.46,6.92,15.52
24.108000,-86.7500,11,96.46,6.92,15.52
24.118000,-86.3750,11,96.46,6.92,15.52
24.128000,-86.6250,11,96.46,6.92,15.52
24.138000,-86.8750,11,96.46,6.92,15.52
24.148000,-86.7500,11,96.46,6.92,15.52
24.158000,-85.6250,11,96.46,6.92,15.52
24.168000,-87.5000,11,96.46,6.92,15.52
24.178000,-85.5000,11,96.46,6.92,15.52
24.188000,-87.1250,11,96.46,6.92,15.52
24.198000,-85.0000,11,96.46,6.92,15.52
24.208000,-87.2500,11,96.46,6.92,15.52
24.218000,-85.3750,11,96.46,6.92,15.52
24.228000,-87.8750,11,96.46,6.92,15.52
24.238000,-85.5000,11,96.46,6.92,15.52
24.248000,-88.0000,11,96.46,6.92,15.52
24.258000,-86.1250,11,96.46,6.92,15.52
24.268000,-88.0000,11,96.46,6.92,15.52
24.278000,-85.5000,11,96.46,6.92,15.52
24.288000,-88.1250,11,96.46,6.92,15.52
24.298000,-88.6250,11,96.46,6.92,15.52
24.308000,-88.1250,11,96.46,6.92,15.52
24.318000,-86.0000,11,96.46,6.92,15.52
24.328000,-86.0000,11,96.46,6.92,15.52
24.338000,-86.0000,11,96.46,6.92,15.52
24.348000,-87.1250,11,96.46,6.92,15.52
24.358000,-88.3750,11,96.46,6.92,15.52
24.368000,-85.1250,11,96.46,6.92,15.52
24.378000,-83.8750,11,96.46,6.92,15.52
24.388000,-83.6250,11,96.46,6.92,15.52
24.398000,-82.0000,11,96.46,6.92,15.52
24.408000,-80.0000,11,96.46,6.92,15.52
24.418000,-75.2500,11,96.46,6.92,15.52
24.428000,-72.6250,11,96.46,6.92,15.52
24.438000,-71.2500,11,96.46,6.92,15.52
24.448000,-75.0000,11,96.46,6.92,15.52
24.458000,-74.7500,11,96.46,6.92,15.52
24.468000,-79.8750,11,96.46,6.92,15.52
24.478000,-81.2500,11,96.46,6.92,15.52
24.488000,-85.2500,11,96.46,6.92,15.52
24.498000,-84.1250,11,96.46,6.92,15.52
24.508000,-86.5000,11,96.46,6.92,15.52
24.518000,-86.1250,11,96.46,6.92,15.52
24.528000,-85.5000,11,96.46,6.92,15.52
24.538000,-87.8750,11,96.46,6.92,15.52
24.548000,-86.3750,11,96.46,6.92,15.52
24.558000,-85.3750,11,96.46,6.92,15.52
24.568000,-87.0000,11,96.46,6.92,15.52
24.578000,-85.5000,11,96.46,6.92,15.52
24.588000,-86.1250,11,96.46,6.92,15.52
24.598000,-87.3750,11,96.46,6.92,15.52
24.608000,-72.2500,11,96.46,6.92,15.52
24.618000,-97.5000,11,96.46,6.92,15.52
24.628000,-85.0000,11,96.46,6.92,15.52
24.638000,-82.2500,11,96.46,6.92,15.52
24.648000,-83.8750,11,96.46,6.92,15.52
24.658000,-80.7500,11,96.46,6.92,15.52
24.668000,-80.1250,11,96.46,6.92,15.52
24.678000,-78.7500,11,96.46,6.92,15.52
24.688000,-78.0000,11,96.46,6.92,15.52
24.698000,-76.3750,11,96.46,6.92,15.52
24.708000,-74.8750,11,96.46,6.92,15.52
24.718000,-74.3750,11,96.46,6.92,15.52
24.728000,-72.2500,11,96.46,6.92,15.52
24.738000,-72.7500,11,96.46,6.92,15.52
24.748000,-72.3750,11,96.46,6.92,15.52
24.758000,-74.8750,11,96.46,6.92,15.52
24.768000,-76.5000,11,96.46,6.92,15.52
24.778000,-85.1250,11,96.46,6.92,15.52
24.788000,-85.0000,11,96.46,6.92,15.52
24.798000,-85.5000,11,96.46,6.92,15.52
24.808000,-85.1250,11,96.46,6.92,15.52
24.818000,-85.6250,11,96.46,6.92,15.52
24.828000,-86.7500,11,96.46,6.92,15.52
24.838000,-86.0000,11,96.46,6.92,15.52
24.848000,-86.8750,11,96.46,6.92,15.52
24.858000,-87.2500,11,96.46,6.92,15.52
24.868000,-87.0000,11,96.46,6.92,15.52
24.878000,-87.2500,11,96.46,6.92,15.52
24.888000,-83.8750,11,96.46,6.92,15.52
24.898000,-86.6250,11,96.46,6.92,15.52
24.908000,-86.5000,11,96.46,6.92,15.52
24.918000,-86.8750,11,96.46,6.92,15.52
24.928000,-85.8750,11,96.46,6.92,15.52
24.938000,-71.0000,11,96.46,6.92,15.52
24.948000,-91.5000,11,96.46,6.92,15.52
24.958000,-83.8750,11,96.46,6.92,15.52
24.968000,-83.2500,11,96.46,6.92,15.52
24.978000,-83.3750,11,96.46,6.92,15.52
24.988000,-80.6250,11,96.46,6.92,15.52
24.998000,-77.7500,11,96.46,6.92,15.52
25.008000,-76.7500,11,96.46,6.92,15.52
25.018000,-74.1250,11,96.46,6.92,15.52
25.028000,-74.2500,11,96.46,6.92,15.52
25.038000,-79.2500,11,96.46,6.92,15.52
25.048000,-80.2500,11,96.46,6.92,15.52
25.058000,-84.1250,11,96.46,6.92,15.52
25.068000,-83.8750,11,96.46,6.92,15.52
25.078000,-86.5000,11,96.46,6.92,15.52
25.088000,-87.0000,11,96.46,6.92,15.52
25.098000,-86.8750,11,96.46,6.92,15.52
25.108000,-87.5000,11,96.46,6.92,15.52
25.118000,-87.3750,11,96.46,6.92,15.52
25.128000,-87.2500,11,96.46,6.92,15.52
25.138000,-86.2500,11,96.46,6.92,15.52
25.148000,-87.0000,11,96.46,6.92,15.52
25.158000,-84.3750,11,96.46,6.92,15.52
25.168000,-85.8750,11,96.46,6.92,15.52
25.178000,-85.6250,11,96.46,6.92,15.52
25.188000,-84.7500,11,96.46,6.92,15.52
25.198000,-83.6250,11,96.46,6.92,15.52
25.208000,-83.8750,11,96.46,6.92,15.52
25.218000,-85.0000,11,96.46,6.92,15.52
25.228000,-86.1250,11,96.46,6.92,15.52
25.238000,-86.6250,11,96.46,6.92,15.52
25.248000,-88.1250,11,96.46,6.92,15.52
25.258000,-85.7500,11,96.46,6.92,15.52
25.268000,-87.1250,11,96.46,6.92,15.52
25.278000,-82.5000,11,96.46,6.92,15.52
25.288000,-72.5000,11,96.46,6.92,15.52
25.298000,-84.6250,11,96.46,6.92,15.52
25.308000,-82.3750,11,96.46,6.92,15.52
25.318000,-73.1250,11,96.46,6.92,15.52
25.328000,-78.8750,11,96.46,6.92,15.52
25.338000,-84.0000,11,96.46,6.92,15.52
25.348000,-85.8750,11,96.46,6.92,15.52
25.358000,-88.0000,11,96.46,6.92,15.52
25.368000,-88.1250,11,96.46,6.92,15.52
25.378000,-86.5000,11,96.46,6.92,15.52
25.388000,-88.5000,11,96.46,6.92,15.52
25.398000,-87.6250,11,96.46,6.92,15.52
25.408000,-87.0000,11,96.46,6.92,15.52
25.418000,-86.3750,11,96.46,6.92,15.52
25.428000,-86.2500,11,96.46,6.92,15.52
25.438000,-85.8750,11,96.46,6.92,15.52
25.448000,-87.8750,11,96.46,6.92,15.52
25.458000,-87.5000,11,96.46,6.92,15.52
25.468000,-85.6250,11,96.46,6.92,15.52
25.478000,-85.3750,11,96.46,6.92,15.52
25.488000,-83.7500,11,96.46,6.92,15.52
25.498000,-86.3750,11,96.46,6.92,15.52
25.508000,-86.2500,11,96.46,6.92,15.52
25.518000,-86.1250,11,96.46,6.92,15.52
25.528000,-86.1250,11,96.46,6.92,15.52
25.538000,-84.1250,11,96.46,6.92,15.52
25.548000,-82.5000,11,96.46,6.92,15.52
25.558000,-81.7500,11,96.46,6.92,15.52
25.568000,-79.6250,11,96.46,6.92,15.52
25.578000,-78.2500,11,96.46,6.92,15.52
25.588000,-74.8750,11,96.46,6.92,15.52
25.598000,-71.2500,11,96.46,6.92,15.52
25.608000,-73.0000,11,96.46,6.92,15.52
25.618000,-70.6250,11,96.46,6.92,15.52
25.628000,-79.7500,11,96.46,6.92,15.52
25.638000,-86.1250,11,96.46,6.92,15.52
25.648000,-87.1250,11,96.46,6.92,15.52
25.658000,-86.0000,11,96.46,6.92,15.52
25.668000,-85.2500,11,96.46,6.92,15.52
25.678000,-86.8750,11,96.46,6.92,15.52
25.688000,-86.5000,11,96.46,6.92,15.52
25.698000,-85.5000,11,96.46,6.92,15.52
25.708000,-88.2500,11,96.46,6.92,15.52
25.718000,-86.5000,11,96.46,6.92,15.52
25.728000,-88.1250,11,96.46,6.92,15.52
25.738000,-87.7500,11,96.46,6.92,15.52
25.748000,-84.6250,11,96.46,6.92,15.52
25.758000,-86.1250,11,96.46,6.92,15.52
25.768000,-83.7500,11,96.46,6.92,15.52
25.778000,-88.6250,11,96.46,6.92,15.52
25.788000,-87.8750,11,96.46,6.92,15.52
25.798000,-87.1250,11,96.46,6.92,15.52
25.808000,-87.8750,11,96.46,6.92,15.52
25.818000,-82.8750,11,96.46,6.92,15.52
25.828000,-82.0000,11,96.46,6.92,15.52
25.838000,-81.5000,11,96.46,6.92,15.52
25.848000,-79.8750,11,96.46,6.92,15.52
25.858000,-73.7500,11,96.46,6.92,15.52
25.868000,-70.7500,11,96.46,6.92,15.52
25.878000,-71.5000,11,96.46,6.92,15.52
25.888000,-76.7500,11,96.46,6.92,15.52
25.898000,-77.1250,11,96.46,6.92,15.52
25.908000,-82.8750,11,96.46,6.92,15.52
25.918000,-82.7500,11,96.46,6.92,15.52
25.928000,-87.5000,11,96.46,6.92,15.52
25.938000,-87.7500,11,96.46,6.92,15.52
25.948000,-86.3750,11,96.46,6.92,15.52
25.958000,-88.2500,11,96.46,6.92,15.52
25.968000,-86.8750,11,96.46,6.92,15.52
25.978000,-87.3750,11,96.46,6.92,15.52
25.988000,-86.8750,11,96.46,6.92,15.52
25.998000,-86.7500,11,96.46,6.92,15.52
26.008000,-85.3750,11,96.46,6.92,15.52
26.018000,-87.3750,11,96.46,6.92,15.52
26.028000,-85.7500,11,96.46,6.92,15.52
26.038000,-87.2500,11,96.46,6.92,15.52
26.048000,-86.0000,11,96.46,6.92,15.52
26.058000,-86.5000,11,96.46,6.92,15.52
26.068000,-85.1250,11,96.46,6.92,15.52
26.078000,-85.0000,11,96.46,6.92,15.52
26.088000,-86.2500,11,96.46,6.92,15.52
26.098000,-85.8750,11,96.46,6.92,15.52
26.108000,-87.7500,11,96.46,6.92,15.52
26.118000,-85.3750,11,96.46,6.92,15.52
26.128000,-88.1250,11,96.46,6.92,15.52
26.138000,-85.2500,11,96.46,6.92,15.52
26.148000,-87.8750,11,96.46,6.92,15.52
26.158000,-86.6250,11,96.46,6.92,15.52
26.168000,-88.1250,11,96.46,6.92,15.52
26.178000,-87.0000,11,96.46,6.92,15.52
26.188000,-87.1250,11,96.46,6.92,15.52
26.198000,-86.8750,11,96.46,6.92,15.52
26.208000,-87.3750,11,96.46,6.92,15.52
26.218000,-86.8750,11,96.46,6.92,15.52
26.228000,-87.0000,11,96.46,6.92,15.52
26.238000,-85.5000,11,96.46,6.92,15.52
26.248000,-86.6250,11,96.46,6.92,15.52
26.258000,-85.5000,11,96.46,6.92,15.52
26.268000,-85.1250,11,96.46,6.92,15.52
26.278000,-84.0000,11,96.46,6.92,15.52
26.288000,-88.1250,11,96.46,6.92,15.52
26.298000,-86.8750,11,96.46,6.92,15.52
26.308000,-88.2500,11,96.46,6.92,15.52
26.318000,-88.2500,11,96.46,6.92,15.52
26.328000,-87.5000,11,96.46,6.92,15.52
26.338000,-88.1250,11,96.46,6.92,15.52
26.348000,-88.0000,11,96.46,6.92,15.52
26.358000,-87.3750,11,96.46,6.92,15.52
26.368000,-84.6250,11,96.46,6.92,15.52
26.378000,-75.1250,11,96.46,6.92,15.52
26.388000,-70.3750,11,96.46,6.92,15.52
26.398000,-81.0000,11,96.46,6.92,15.52
26.408000,-100.7500,11,96.46,6.92,15.52
26.418000,-91.8750,11,96.46,6.92,15.52
26.428000,-83.8750,11,96.46,6.92,15.52
26.438000,-84.7500,11,96.46,6.92,15.52
26.448000,-84.0000,11,96.46,6.92,15.52
26.458000,-85.3750,13,98.15,8.49,16.82
26.468000,-83.1250,13,98.15,8.49,16.82
26.478000,-84.0000,13,98.15,8.49,16.82
26.488000,-81.8750,13,98.15,8.49,16.82
26.498000,-82.8750,13,98.15,8.49,16.82
26.508000,-80.7500,13,98.15,8.49,16.82
26.518000,-81.3750,13,98.15,8.49,16.82
26.528000,-78.6250,13,98.15,8.49,16.82
26.538000,-79.2500,13,98.15,8.49,16.82
26.548000,-76.6250,13,98.15,8.49,16.82
26.558000,-76.0000,13,98.15,8.49,16.82
26.568000,-73.0000,13,98.15,8.49,16.82
26.578000,-73.8750,13,98.15,8.49,16.82
26.588000,-72.1250,13,98.15,8.49,16.82
26.598000,-73.8750,13,98.15,8.49,16.82
26.608000,-74.6250,13,98.15,8.49,16.82
26.618000,-79.1250,13,98.15,8.49,16.82
26.628000,-80.2500,13,98.15,8.49,16.82
26.638000,-85.1250,13,98.15,8.49,16.82
26.648000,-84.2500,13,98.15,8.49,16.82
26.658000,-89.0000,13,98.15,8.49,16.82
26.668000,-86.6250,13,98.15,8.49,16.82
26.678000,-89.3750,13,98.15,8.49,16.82
26.688000,-86.8750,13,98.15,8.49,16.82
26.698000,-88.8750,13,98.15,8.49,16.82
26.708000,-86.8750,13,98.15,8.49,16.82
26.718000,-89.3750,13,98.15,8.49,16.82
26.728000,-86.1250,13,98.15,8.49,16.82
26.738000,-89.7500,13,98.15,8.49,16.82
26.748000,-86.3750,13,98.15,8.49,16.82
26.758000,-89.1250,13,98.15,8.49,16.82
26.768000,-86.0000,13,98.15,8.49,16.82
26.778000,-88.5000,13,98.15,8.49,16.82
26.788000,-85.5000,13,98.15,8.49,16.82
26.798000,-88.6250,13,98.15,8.49,16.82
26.808000,-85.7500,13,98.15,8.49,16.82
26.818000,-87.5000,13,98.15,8.49,16.82
26.828000,-86.2500,13,98.15,8.49,16.82
26.838000,-88.6250,13,98.15,8.49,16.82
26.848000,-85.3750,13,98.15,8.49,16.82
26.858000,-87.8750,13,98.15,8.49,16.82
26.868000,-86.0000,13,98.15,8.49,16.82
26.878000,-87.8750,13,98.15,8.49,16.82
26.888000,-86.0000,13,98.15,8.49,16.82
26.898000,-87.7500,13,98.15,8.49,16.82
26.908000,-86.3750,13,98.15,8.49,16.82
26.918000,-88.1250,13,98.15,8.49,16.82
26.928000,-86.6250,13,98.15,8.49,16.82
26.938000,-88.3750,13,98.15,8.49,16.82
26.948000,-86.7500,13,98.15,8.49,16.82
26.958000,-88.0000,13,98.15,8.49,16.82
26.968000,-86.8750,13,98.15,8.49,16.82
26.978000,-88.1250,13,98.15,8.49,16.82
26.988000,-86.5000,13,98.15,8.49,16.82
26.998000,-87.5000,13,98.15,8.49,16.82
27.008000,-86.3750,13,98.15,8.49,16.82
27.018000,-87.1250,13,98.15,8.49,16.82
27.028000,-86.2500,13,98.15,8.49,16.82
27.038000,-86.0000,13,98.15,8.49,16.82
27.048000,-84.3750,13,98.15,8.49,16.82
27.058000,-86.2500,13,98.15,8.49,16.82
27.068000,-86.5000,13,98.15,8.49,16.82
27.078000,-87.3750,13,98.15,8.49,16.82
27.088000,-87.1250,13,98.15,8.49,16.82
27.098000,-88.2500,13,98.15,8.49,16.82
27.108000,-87.7500,13,98.15,8.49,16.82
27.118000,-88.3750,13,98.15,8.49,16.82
27.128000,-87.8750,13,98.15,8.49,16.82
27.138000,-89.0000,13,98.15,8.49,16.82
27.148000,-87.8750,13,98.15,8.49,16.82
27.158000,-88.3750,13,98.15,8.49,16.82
27.168000,-87.5000,13,98.15,8.49,16.82
27.178000,-87.6250,13,98.15,8.49,16.82
27.188000,-85.1250,13,98.15,8.49,16.82
27.198000,-77.2500,13,98.15,8.49,16.82
27.208000,-71.8750,13,98.15,8.49,16.82
27.218000,-76.0000,13,98.15,8.49,16.82
27.228000,-99.3750,13,98.15,8.49,16.82
27.238000,-94.2500,13,98.15,8.49,16.82
27.248000,-86.3750,13,98.15,8.49,16.82
27.258000,-83.6250,13,98.15,8.49,16.82
27.268000,-85.1250,13,98.15,8.49,16.82
27.278000,-83.6250,13,98.15,8.49,16.82
27.288000,-84.3750,13,98.15,8.49,16.82
27.298000,-82.7500,13,98.15,8.49,16.82
27.308000,-84.2500,13,98.15,8.49,16.82
27.318000,-81.7500,13,98.15,8.49,16.82
27.328000,-82.8750,13,98.15,8.49,16.82
27.338000,-80.2500,13,98.15,8.49,16.82
27.348000,-80.6250,13,98.15,8.49,16.82
27.358000,-77.8750,13,98.15,8.49,16.82
27.368000,-78.2500,13,98.15,8.49,16.82
27.378000,-74.7500,13,98.15,8.49,16.82
27.388000,-75.1250,13,98.15,8.49,16.82
27.398000,-72.1250,13,98.15,8.49,16.82
27.408000,-74.3750,13,98.15,8.49,16.82
27.418000,-71.6250,13,98.15,8.49,16.82
27.428000,-76.1250,13,98.15,8.49,16.82
27.438000,-76.5000,13,98.15,8.49,16.82
27.448000,-82.1250,13,98.15,8.49,16.82
27.458000,-81.8750,13,98.15,8.49,16.82
27.468000,-86.5000,13,98.15,8.49,16.82
27.478000,-85.6250,13,98.15,8.49,16.82
27.488000,-89.0000,13,98.15,8.49,16.82
27.498000,-86.3750,13,98.15,8.49,16.82
27.508000,-89.0000,13,98.15,8.49,16.82
27.518000,-86.6250,13,98.15,8.49,16.82
27.528000,-89.5000,13,98.15,8.49,16.82
27.538000,-86.7500,13,98.15,8.49,16.82
27.548000,-89.5000,13,98.15,8.49,16.82
27.558000,-86.7500,13,98.15,8.49,16.82
27.568000,-89.2500,13,98.15,8.49,16.82
27.578000,-86.7500,13,98.15,8.49,16.82
27.588000,-89.1250,13,98.15,8.49,16.82
27.598000,-86.8750,13,98.15,8.49,16.82
27.608000,-88.5000,13,98.15,8.49,16.82
27.618000,-86.8750,13,98.15,8.49,16.82
27.628000,-88.2500,13,98.15,8.49,16.82
27.638000,-86.1250,13,98.15,8.49,16.82
27.648000,-87.8750,13,98.15,8.49,16.82
27.658000,-85.7500,13,98.15,8.49,16.82
27.668000,-88.5000,13,98.15,8.49,16.82
27.678000,-85.7500,13,98.15,8.49,16.82
27.688000,-88.0000,13,98.15,8.49,16.82
27.698000,-86.5000,13,98.15,8.49,16.82
27.708000,-88.1250,13,98.15,8.49,16.82
27.718000,-86.1250,13,98.15,8.49,16.82
27.728000,-88.6250,13,98.15,8.49,16.82
27.738000,-86.5000,13,98.15,8.49,16.82
27.748000,-87.8750,13,98.15,8.49,16.82
27.758000,-86.5000,13,98.15,8.49,16.82
27.768000,-88.5000,13,98.15,8.49,16.82
27.778000,-86.7500,13,98.15,8.49,16.82
27.788000,-88.8750,13,98.15,8.49,16.82
27.798000,-86.3750,13,98.15,8.49,16.82
27.808000,-87.3750,13,98.15,8.49,16.82
27.818000,-85.8750,13,98.15,8.49,16.82
27.828000,-86.6250,13,98.15,8.49,16.82
27.838000,-85.3750,13,98.15,8.49,16.82
27.848000,-86.2500,13,98.15,8.49,16.82
27.858000,-84.3750,13,98.15,8.49,16.82
27.868000,-86.1250,13,98.15,8.49,16.82
27.878000,-86.3750,13,98.15,8.49,16.82
27.888000,-88.2500,13,98.15,8.49,16.82
27.898000,-87.0000,13,98.15,8.49,16.82
27.908000,-88.2500,13,98.15,8.49,16.82
27.918000,-87.7500,13,98.15,8.49,16.82
27.928000,-88.1250,13,98.15,8.49,16.82
27.938000,-87.6250,13,98.15,8.49,16.82
27.948000,-87.7500,13,98.15,8.49,16.82
27.958000,-88.0000,13,98.15,8.49,16.82
27.968000,-88.6250,13,98.15,8.49,16.82
27.978000,-87.7500,13,98.15,8.49,16.82
27.988000,-88.0000,13,98.15,8.49,16.82
27.998000,-84.5000,13,98.15,8.49,16.82
28.008000,-72.2500,13,98.15,8.49,16.82
28.018000,-67.3750,13,98.15,8.49,16.82
28.028000,-87.3750,13,98.15,8.49,16.82
28.038000,-102.6250,13,98.15,8.49,16.82
28.048000,-89.5000,13,98.15,8.49,16.82
28.058000,-85.1250,13,98.15,8.49,16.82
28.068000,-84.2500,13,98.15,8.49,16.82
28.078000,-84.6250,13,98.15,8.49,16.82
28.088000,-83.6250,13,98.15,8.49,16.82
28.098000,-83.6250,13,98.15,8.49,16.82
28.108000,-81.6250,13,98.15,8.49,16.82
28.118000,-82.2500,13,98.15,8.49,16.82
28.128000,-80.1250,13,98.15,8.49,16.82
28.138000,-80.6250,13,98.15,8.49,16.82
28.148000,-78.5000,13,98.15,8.49,16.82
28.158000,-79.3750,13,98.15,8.49,16.82
28.168000,-75.5000,13,98.15,8.49,16.82
28.178000,-76.0000,13,98.15,8.49,16.82
28.188000,-72.1250,13,98.15,8.49,16.82
28.198000,-72.8750,13,98.15,8.49,16.82
28.208000,-69.8750,13,98.15,8.49,16.82
28.218000,-71.6250,13,98.15,8.49,16.82
28.228000,-72.1250,13,98.15,8.49,16.82
28.238000,-82.5000,13,98.15,8.49,16.82
28.248000,-88.2500,13,98.15,8.49,16.82
28.258000,-87.3750,13,98.15,8.49,16.82
28.268000,-86.3750,13,98.15,8.49,16.82
28.278000,-84.3750,13,98.15,8.49,16.82
28.288000,-85.3750,13,98.15,8.49,16.82
28.298000,-87.3750,13,98.15,8.49,16.82
28.308000,-87.5000,13,98.15,8.49,16.82
28.318000,-88.1250,13,98.15,8.49,16.82
28.328000,-87.1250,13,98.15,8.49,16.82
28.338000,-86.1250,13,98.15,8.49,16.82
28.348000,-85.2500,13,98.15,8.49,16.82
28.358000,-87.0000,13,98.15,8.49,16.82
28.368000,-87.5000,13,98.15,8.49,16.82
28.378000,-88.5000,13,98.15,8.49,16.82
28.388000,-87.6250,13,98.15,8.49,16.82
28.398000,-88.5000,13,98.15,8.49,16.82
28.408000,-87.8750,13,98.15,8.49,16.82
28.418000,-87.1250,13,98.15,8.49,16.82
28.428000,-88.0000,13,98.15,8.49,16.82
28.438000,-87.5000,13,98.15,8.49,16.82
28.448000,-85.7500,13,98.15,8.49,16.82
28.458000,-68.3750,13,98.15,8.49,16.82
28.468000,-88.5000,13,98.15,8.49,16.82
28.478000,-81.7500,13,98.15,8.49,16.82
28.488000,-81.2500,13,98.15,8.49,16.82
28.498000,-71.1250,13,98.15,8.49,16.82
28.508000,-75.8750,13,98.15,8.49,16.82
28.518000,-87.5000,13,98.15,8.49,16.82
28.528000,-88.2500,13,98.15,8.49,16.82
28.538000,-86.3750,13,98.15,8.49,16.82
28.548000,-86.3750,13,98.15,8.49,16.82
28.558000,-87.3750,13,98.15,8.49,16.82
28.568000,-87.5000,13,98.15,8.49,16.82
28.578000,-86.5000,13,98.15,8.49,16.82
28.588000,-87.5000,13,98.15,8.49,16.82
28.598000,-85.1250,13,98.15,8.49,16.82
28.608000,-86.2500,13,98.15,8.49,16.82
28.618000,-87.8750,13,98.15,8.49,16.82
28.628000,-87.0000,13,98.15,8.49,16.82
28.638000,-88.7500,13,98.15,8.49,16.82
28.648000,-87.2500,13,98.15,8.49,16.82
28.658000,-88.5000,13,98.15,8.49,16.82
28.668000,-87.2500,13,98.15,8.49,16.82
28.678000,-88.3750,13,98.15,8.49,16.82
28.688000,-87.5000,13,98.15,8.49,16.82
28.698000,-88.5000,13,98.15,8.49,16.82
28.708000,-87.8750,13,98.15,8.49,16.82
28.718000,-87.3750,13,98.15,8.49,16.82
28.728000,-94.6250,13,98.15,8.49,16.82
28.738000,-83.6250,13,98.15,8.49,16.82
28.748000,-82.0000,13,98.15,8.49,16.82
28.758000,-80.2500,13,98.15,8.49,16.82
28.768000,-73.0000,13,98.15,8.49,16.82
28.778000,-75.3750,13,98.15,8.49,16.82
28.788000,-87.6250,13,98.15,8.49,16.82
28.798000,-88.2500,13,98.15,8.49,16.82
28.808000,-87.3750,13,98.15,8.49,16.82
28.818000,-86.0000,13,98.15,8.49,16.82
28.828000,-86.3750,13,98.15,8.49,16.82
28.838000,-86.5000,13,98.15,8.49,16.82
28.848000,-86.8750,13,98.15,8.49,16.82
28.858000,-86.7500,13,98.15,8.49,16.82
28.868000,-87.2500,13,98.15,8.49,16.82
28.878000,-87.3750,13,98.15,8.49,16.82
28.888000,-87.2500,13,98.15,8.49,16.82
28.898000,-86.6250,13,98.15,8.49,16.82
28.908000,-84.6250,13,98.15,8.49,16.82
28.918000,-88.1250,13,98.15,8.49,16.82
28.928000,-76.1250,13,98.15,8.49,16.82
28.938000,-84.7500,13,98.15,8.49,16.82
28.948000,-75.1250,13,98.15,8.49,16.82
28.958000,-75.7500,13,98.15,8.49,16.82
28.968000,-87.1250,13,98.15,8.49,16.82
28.978000,-87.1250,13,98.15,8.49,16.82
28.988000,-87.1250,13,98.15,8.49,16.82
28.998000,-86.6250,13,98.15,8.49,16.82
29.008000,-87.2500,13,98.15,8.49,16.82
29.018000,-86.0000,13,98.15,8.49,16.82
29.028000,-86.1250,13,98.15,8.49,16.82
29.038000,-86.1250,13,98.15,8.49,16.82
29.048000,-86.6250,13,98.15,8.49,16.82
29.058000,-86.8750,13,98.15,8.49,16.82
29.068000,-86.6250,13,98.15,8.49,16.82
29.078000,-86.1250,13,98.15,8.49,16.82
29.088000,-86.8750,13,98.15,8.49,16.82
29.098000,-85.7500,13,98.15,8.49,16.82
29.108000,-84.3750,13,98.15,8.49,16.82
29.118000,-87.2500,13,98.15,8.49,16.82
29.128000,-87.1250,13,98.15,8.49,16.82
29.138000,-87.5000,13,98.15,8.49,16.82
29.148000,-68.7500,13,98.15,8.49,16.82
29.158000,-98.6250,13,98.15,8.49,16.82
29.168000,-83.3750,13,98.15,8.49,16.82
29.178000,-83.0000,13,98.15,8.49,16.82
29.188000,-82.2500,13,98.15,8.49,16.82
29.198000,-81.5000,13,98.15,8.49,16.82
29.208000,-81.2500,13,98.15,8.49,16.82
29.218000,-79.8750,13,98.15,8.49,16.82
29.228000,-79.6250,13,98.15,8.49,16.82
29.238000,-78.3750,13,98.15,8.49,16.82
29.248000,-72.1250,13,98.15,8.49,16.82
29.258000,-76.5000,13,98.15,8.49,16.82
29.268000,-81.2500,13,98.15,8.49,16.82
29.278000,-84.8750,13,98.15,8.49,16.82
29.288000,-86.6250,13,98.15,8.49,16.82
29.298000,-87.6250,13,98.15,8.49,16.82
29.308000,-86.8750,13,98.15,8.49,16.82
29.318000,-87.2500,13,98.15,8.49,16.82
29.328000,-87.0000,13,98.15,8.49,16.82
29.338000,-87.2500,13,98.15,8.49,16.82
29.348000,-87.0000,13,98.15,8.49,16.82
29.358000,-87.2500,13,98.15,8.49,16.82
29.368000,-86.7500,13,98.15,8.49,16.82
29.378000,-85.7500,13,98.15,8.49,16.82
29.388000,-85.6250,13,98.15,8.49,16.82
29.398000,-85.1250,13,98.15,8.49,16.82
29.408000,-87.5000,13,98.15,8.49,16.82
29.418000,-87.1250,13,98.15,8.49,16.82
29.428000,-87.7500,13,98.15,8.49,16.82
29.438000,-87.1250,13,98.15,8.49,16.82
29.448000,-87.5000,13,98.15,8.49,16.82
29.458000,-70.8750,13,98.15,8.49,16.82
29.468000,-84.6250,13,98.15,8.49,16.82
29.478000,-73.3750,13,98.15,8.49,16.82
29.488000,-72.7500,13,98.15,8.49,16.82
29.498000,-73.3750,13,98.15,8.49,16.82
29.508000,-80.8750,13,98.15,8.49,16.82
29.518000,-84.0000,13,98.15,8.49,16.82
29.528000,-86.5000,13,98.15,8.49,16.82
29.538000,-87.3750,13,98.15,8.49,16.82
29.548000,-86.7500,13,98.15,8.49,16.82
29.558000,-85.8750,13,98.15,8.49,16.82
29.568000,-87.2500,13,98.15,8.49,16.82
29.578000,-88.1250,13,98.15,8.49,16.82
29.588000,-87.5000,13,98.15,8.49,16.82
29.598000,-84.3750,13,98.15,8.49,16.82
29.608000,-83.8750,13,98.15,8.49,16.82
29.618000,-83.0000,13,98.15,8.49,16.82
29.628000,-82.3750,13,98.15,8.49,16.82
29.638000,-80.6250,13,98.15,8.49,16.82
29.648000,-79.0000,13,98.15,8.49,16.82
29.658000,-78.3750,13,98.15,8.49,16.82
29.668000,-76.5000,13,98.15,8.49,16.82
29.678000,-76.5000,13,98.15,8.49,16.82
29.688000,-83.1250,13,98.15,8.49,16.82
29.698000,-85.8750,13,98.15,8.49,16.82
29.708000,-86.5000,13,98.15,8.49,16.82
29.718000,-86.2500,13,98.15,8.49,16.82
29.728000,-86.3750,13,98.15,8.49,16.82
29.738000,-86.0000,13,98.15,8.49,16.82
29.748000,-86.8750,13,98.15,8.49,16.82
29.758000,-86.6250,13,98.15,8.49,16.82
29.768000,-86.7500,13,98.15,8.49,16.82
29.778000,-86.7500,13,98.15,8.49,16.82
29.788000,-86.7500,13,98.15,8.49,16.82
29.798000,-85.5000,13,98.15,8.49,16.82
29.808000,-85.3750,13,98.15,8.49,16.82
29.818000,-87.6250,13,98.15,8.49,16.82
29.828000,-88.5000,13,98.15,8.49,16.82
29.838000,-91.8750,13,98.15,8.49,16.82
29.848000,-84.5000,13,98.15,8.49,16.82
29.858000,-84.0000,13,98.15,8.49,16.82
29.868000,-82.3750,13,98.15,8.49,16.82
29.878000,-82.2500,13,98.15,8.49,16.82
29.888000,-78.2500,13,98.15,8.49,16.82
29.898000,-76.0000,13,98.15,8.49,16.82
29.908000,-75.0000,13,98.15,8.49,16.82
29.918000,-73.0000,13,98.15,8.49,16.82
29.928000,-72.6250,13,98.15,8.49,16.82
29.938000,-80.0000,13,98.15,8.49,16.82
29.948000,-86.0000,13,98.15,8.49,16.82
29.958000,-88.2500,13,98.15,8.49,16.82
29.968000,-86.7500,13,98.15,8.49,16.82
29.978000,-86.6250,13,98.15,8.49,16.82
29.988000,-87.3750,13,98.15,8.49,16.82
29.998000,-86.8750,13,98.15,8.49,16.82
30.008000,-87.3750,13,98.15,8.49,16.82
30.018000,-87.3750,13,98.15,8.49,16.82
30.028000,-87.6250,13,98.15,8.49,16.82
30.038000,-86.7500,13,98.15,8.49,16.82
30.048000,-86.0000,13,98.15,8.49,16.82
30.058000,-85.7500,13,98.15,8.49,16.82
30.068000,-85.3750,13,98.15,8.49,16.82
30.078000,-86.5000,13,98.15,8.49,16.82
30.088000,-88.0000,13,98.15,8.49,16.82
30.098000,-87.7500,13,98.15,8.49,16.82
30.108000,-88.6250,13,98.15,8.49,16.82
30.118000,-87.5000,13,98.15,8.49,16.82
30.128000,-88.6250,13,98.15,8.49,16.82
30.138000,-88.5000,13,98.15,8.49,16.82
30.148000,-88.3750,13,98.15,8.49,16.82
30.158000,-87.7500,13,98.15,8.49,16.82
30.168000,-74.8750,13,98.15,8.49,16.82
30.178000,-69.1250,13,98.15,8.49,16.82
30.188000,-89.0000,13,98.15,8.49,16.82
30.198000,-99.3750,13,98.15,8.49,16.82
30.208000,-87.8750,13,98.15,8.49,16.82
30.218000,-84.6250,13,98.15,8.49,16.82
30.228000,-85.1250,13,98.15,8.49,16.82
30.238000,-84.3750,13,98.15,8.49,16.82
30.248000,-84.0000,13,98.15,8.49,16.82
30.258000,-83.6250,13,98.15,8.49,16.82
30.268000,-83.1250,13,98.15,8.49,16.82
30.278000,-82.0000,13,98.15,8.49,16.82
30.288000,-82.2500,13,98.15,8.49,16.82
30.298000,-81.2500,13,98.15,8.49,16.82
30.308000,-79.7500,13,98.15,8.49,16.82
30.318000,-79.3750,13,98.15,8.49,16.82
30.328000,-77.0000,13,98.15,8.49,16.82
30.338000,-76.1250,13,98.15,8.49,16.82
30.348000,-74.0000,13,98.15,8.49,16.82
30.358000,-73.7500,13,98.15,8.49,16.82
30.368000,-73.6250,13,98.15,8.49,16.82
30.378000,-75.3750,13,98.15,8.49,16.82
30.388000,-75.8750,13,98.15,8.49,16.82
30.398000,-80.5000,13,98.15,8.49,16.82
30.408000,-82.3750,13,98.15,8.49,16.82
30.418000,-85.0000,13,98.15,8.49,16.82
30.428000,-85.6250,13,98.15,8.49,16.82
30.438000,-86.7500,13,98.15,8.49,16.82
30.448000,-86.8750,13,98.15,8.49,16.82
30.458000,-87.8750,13,98.15,8.49,16.82
30.468000,-88.0000,13,98.15,8.49,16.82
30.478000,-87.3750,13,98.15,8.49,16.82
30.488000,-87.3750,13,98.15,8.49,16.82
30.498000,-87.1250,13,98.15,8.49,16.82
30.508000,-86.8750,13,98.15,8.49,16.82
30.518000,-86.7500,13,98.15,8.49,16.82
30.528000,-87.2500,13,98.15,8.49,16.82
30.538000,-86.5000,13,98.15,8.49,16.82
30.548000,-87.1250,13,98.15,8.49,16.82
30.558000,-86.5000,13,98.15,8.49,16.82
30.568000,-87.2500,13,98.15,8.49,16.82
30.578000,-86.5000,13,98.15,8.49,16.82
30.588000,-87.3750,13,98.15,8.49,16.82
30.598000,-86.7500,13,98.15,8.49,16.82
30.608000,-87.2500,13,98.15,8.49,16.82
30.618000,-87.0000,13,98.15,8.49,16.82
30.628000,-87.5000,13,98.15,8.49,16.82
30.638000,-87.2500,13,98.15,8.49,16.82
30.648000,-87.5000,13,98.15,8.49,16.82
30.658000,-87.0000,13,98.15,8.49,16.82
30.668000,-87.0000,15,105.71,6.89,3.83
30.678000,-86.2500,15,105.71,6.89,3.83
30.688000,-86.0000,15,105.71,6.89,3.83
30.698000,-85.7500,15,105.71,6.89,3.83
30.708000,-85.6250,15,105.71,6.89,3.83
30.718000,-86.0000,15,105.71,6.89,3.83
30.728000,-86.6250,15,105.71,6.89,3.83
30.738000,-87.3750,15,105.71,6.89,3.83
30.748000,-87.7500,15,105.71,6.89,3.83
30.758000,-87.5000,15,105.71,6.89,3.83
30.768000,-87.2500,15,105.71,6.89,3.83
30.778000,-88.1250,15,105.71,6.89,3.83
30.788000,-87.7500,15,105.71,6.89,3.83
30.798000,-88.7500,15,105.71,6.89,3.83
30.808000,-87.7500,15,105.71,6.89,3.83
30.818000,-87.8750,15,105.71,6.89,3.83
30.828000,-87.7500,15,105.71,6.89,3.83
30.838000,-87.2500,15,105.71,6.89,3.83
30.848000,-85.1250,15,105.71,6.89,3.83
30.858000,-76.6250,15,105.71,6.89,3.83
30.868000,-71.6250,15,105.71,6.89,3.83
30.878000,-78.3750,15,105.71,6.89,3.83
30.888000,-99.0000,15,105.71,6.89,3.83
30.898000,-90.8750,15,105.71,6.89,3.83
30.908000,-85.0000,15,105.71,6.89,3.83
30.918000,-84.5000,15,105.71,6.89,3.83
30.928000,-83.8750,15,105.71,6.89,3.83
30.938000,-84.0000,15,105.71,6.89,3.83
30.948000,-83.5000,15,105.71,6.89,3.83
30.958000,-82.8750,15,105.71,6.89,3.83
30.968000,-82.1250,15,105.71,6.89,3.83
30.978000,-82.1250,15,105.71,6.89,3.83
30.988000,-81.1250,15,105.71,6.89,3.83
30.998000,-81.5000,15,105.71,6.89,3.83
31.008000,-79.7500,15,105.71,6.89,3.83
31.018000,-78.6250,15,105.71,6.89,3.83
31.028000,-76.7500,15,105.71,6.89,3.83
31.038000,-76.7500,15,105.71,6.89,3.83
31.048000,-74.8750,15,105.71,6.89,3.83
31.058000,-74.2500,15,105.71,6.89,3.83
31.068000,-73.5000,15,105.71,6.89,3.83
31.078000,-74.2500,15,105.71,6.89,3.83
31.088000,-76.2500,15,105.71,6.89,3.83
31.098000,-79.5000,15,105.71,6.89,3.83
31.108000,-81.5000,15,105.71,6.89,3.83
31.118000,-84.2500,15,105.71,6.89,3.83
31.128000,-85.1250,15,105.71,6.89,3.83
31.138000,-86.1250,15,105.71,6.89,3.83
31.148000,-86.1250,15,105.71,6.89,3.83
31.158000,-86.8750,15,105.71,6.89,3.83
31.168000,-86.7500,15,105.71,6.89,3.83
31.178000,-87.5000,15,105.71,6.89,3.83
31.188000,-87.1250,15,105.71,6.89,3.83
31.198000,-87.2500,15,105.71,6.89,3.83
31.208000,-87.3750,15,105.71,6.89,3.83
31.218000,-87.5000,15,105.71,6.89,3.83
31.228000,-86.8750,15,105.71,6.89,3.83
31.238000,-87.1250,15,105.71,6.89,3.83
31.248000,-86.1250,15,105.71,6.89,3.83
31.258000,-87.1250,15,105.71,6.89,3.83
31.268000,-86.6250,15,105.71,6.89,3.83
31.278000,-86.8750,15,105.71,6.89,3.83
31.288000,-86.0000,15,105.71,6.89,3.83
31.298000,-86.6250,15,105.71,6.89,3.83
31.308000,-85.8750,15,105.71,6.89,3.83
31.318000,-86.3750,15,105.71,6.89,3.83
31.328000,-86.3750,15,105.71,6.89,3.83
31.338000,-86.7500,15,105.71,6.89,3.83
31.348000,-85.8750,15,105.71,6.89,3.83
31.358000,-87.3750,15,105.71,6.89,3.83
31.368000,-86.6250,15,105.71,6.89,3.83
31.378000,-86.7500,15,105.71,6.89,3.83
31.388000,-86.5000,15,105.71,6.89,3.83
31.398000,-87.0000,15,105.71,6.89,3.83
31.408000,-86.8750,15,105.71,6.89,3.83
31.418000,-86.7500,15,105.71,6.89,3.83
31.428000,-85.6250,15,105.71,6.89,3.83
31.438000,-86.2500,15,105.71,6.89,3.83
31.448000,-85.1250,15,105.71,6.89,3.83
31.458000,-85.0000,15,105.71,6.89,3.83
31.468000,-85.8750,15,105.71,6.89,3.83
31.478000,-86.3750,15,105.71,6.89,3.83
31.488000,-87.2500,15,105.71,6.89,3.83
31.498000,-87.5000,15,105.71,6.89,3.83
31.508000,-87.7500,15,105.71,6.89,3.83
31.518000,-87.5000,15,105.71,6.89,3.83
31.528000,-87.6250,15,105.71,6.89,3.83
31.538000,-88.0000,15,105.71,6.89,3.83
31.548000,-88.2500,15,105.71,6.89,3.83
31.558000,-87.5000,15,105.71,6.89,3.83
31.568000,-87.3750,15,105.71,6.89,3.83
31.578000,-87.8750,15,105.71,6.89,3.83
31.588000,-87.7500,15,105.71,6.89,3.83
31.598000,-83.8750,15,105.71,6.89,3.83
31.608000,-74.5000,15,105.71,6.89,3.83
31.618000,-70.7500,15,105.71,6.89,3.83
31.628000,-87.2500,15,105.71,6.89,3.83
31.638000,-99.7500,15,105.71,6.89,3.83
31.648000,-88.1250,15,105.71,6.89,3.83
31.658000,-84.6250,15,105.71,6.89,3.83
31.668000,-84.8750,15,105.71,6.89,3.83
31.678000,-84.1250,15,105.71,6.89,3.83
31.688000,-84.5000,15,105.71,6.89,3.83
31.698000,-83.6250,15,105.71,6.89,3.83
31.708000,-82.8750,15,105.71,6.89,3.83
31.718000,-82.1250,15,105.71,6.89,3.83
31.728000,-82.3750,15,105.71,6.89,3.83
31.738000,-81.3750,15,105.71,6.89,3.83
31.748000,-80.3750,15,105.71,6.89,3.83
31.758000,-78.6250,15,105.71,6.89,3.83
31.768000,-77.8750,15,105.71,6.89,3.83
31.778000,-76.1250,15,105.71,6.89,3.83
31.788000,-75.0000,15,105.71,6.89,3.83
31.798000,-73.6250,15,105.71,6.89,3.83
31.808000,-72.8750,15,105.71,6.89,3.83
31.818000,-73.0000,15,105.71,6.89,3.83
31.828000,-74.5000,15,105.71,6.89,3.83
31.838000,-76.0000,15,105.71,6.89,3.83
31.848000,-79.6250,15,105.71,6.89,3.83
31.858000,-81.6250,15,105.71,6.89,3.83
31.868000,-84.5000,15,105.71,6.89,3.83
31.878000,-85.2500,15,105.71,6.89,3.83
31.888000,-86.6250,15,105.71,6.89,3.83
31.898000,-87.1250,15,105.71,6.89,3.83
31.908000,-87.6250,15,105.71,6.89,3.83
31.918000,-86.6250,15,105.71,6.89,3.83
31.928000,-87.7500,15,105.71,6.89,3.83
31.938000,-87.0000,15,105.71,6.89,3.83
31.948000,-87.5000,15,105.71,6.89,3.83
31.958000,-86.6250,15,105.71,6.89,3.83
31.968000,-87.2500,15,105.71,6.89,3.83
31.978000,-86.8750,15,105.71,6.89,3.83
31.988000,-87.3750,15,105.71,6.89,3.83
31.998000,-86.7500,15,105.71,6.89,3.83
32.008000,-87.0000,15,105.71,6.89,3.83
32.018000,-86.6250,15,105.71,6.89,3.83
32.028000,-86.6250,15,105.71,6.89,3.83
32.038000,-86.3750,15,105.71,6.89,3.83
32.048000,-86.6250,15,105.71,6.89,3.83
32.058000,-86.7500,15,105.71,6.89,3.83
32.068000,-87.0000,15,105.71,6.89,3.83
32.078000,-86.1250,15,105.71,6.89,3.83
32.088000,-86.5000,15,105.71,6.89,3.83
32.098000,-87.1250,15,105.71,6.89,3.83
32.108000,-87.1250,15,105.71,6.89,3.83
32.118000,-87.0000,15,105.71,6.89,3.83
32.128000,-87.3750,15,105.71,6.89,3.83
32.138000,-87.3750,15,105.71,6.89,3.83
32.148000,-87.1250,15,105.71,6.89,3.83
32.158000,-87.0000,15,105.71,6.89,3.83
32.168000,-87.5000,15,105.71,6.89,3.83
32.178000,-86.5000,15,105.71,6.89,3.83
32.188000,-86.7500,15,105.71,6.89,3.83
32.198000,-85.5000,15,105.71,6.89,3.83
32.208000,-86.3750,15,105.71,6.89,3.83
32.218000,-85.2500,15,105.71,6.89,3.83
32.228000,-85.6250,15,105.71,6.89,3.83
32.238000,-86.1250,15,105.71,6.89,3.83
32.248000,-86.6250,15,105.71,6.89,3.83
32.258000,-87.5000,15,105.71,6.89,3.83
32.268000,-88.5000,15,105.71,6.89,3.83
32.278000,-87.6250,15,105.71,6.89,3.83
32.288000,-88.6250,15,105.71,6.89,3.83
32.298000,-88.0000,15,105.71,6.89,3.83
32.308000,-88.6250,15,105.71,6.89,3.83
32.318000,-87.8750,15,105.71,6.89,3.83
32.328000,-88.1250,15,105.71,6.89,3.83
32.338000,-88.0000,15,105.71,6.89,3.83
32.348000,-87.8750,15,105.71,6.89,3.83
32.358000,-86.5000,15,105.71,6.89,3.83
32.368000,-83.8750,15,105.71,6.89,3.83
32.378000,-73.2500,15,105.71,6.89,3.83
32.388000,-70.2500,15,105.71,6.89,3.83
32.398000,-88.3750,15,105.71,6.89,3.83
32.408000,-95.0000,15,105.71,6.89,3.83
32.418000,-84.6250,15,105.71,6.89,3.83
32.428000,-85.1250,15,105.71,6.89,3.83
32.438000,-80.3750,15,105.71,6.89,3.83
32.448000,-74.8750,15,105.71,6.89,3.83
32.458000,-72.6250,15,105.71,6.89,3.83
32.468000,-79.2500,15,105.71,6.89,3.83
32.478000,-87.6250,15,105.71,6.89,3.83
32.488000,-87.5000,15,105.71,6.89,3.83
32.498000,-87.5000,15,105.71,6.89,3.83
32.508000,-87.2500,15,105.71,6.89,3.83
32.518000,-87.2500,15,105.71,6.89,3.83
32.528000,-87.1250,15,105.71,6.89,3.83
32.538000,-87.2500,15,105.71,6.89,3.83
32.548000,-87.3750,15,105.71,6.89,3.83
32.558000,-87.5000,15,105.71,6.89,3.83
32.568000,-87.3750,15,105.71,6.89,3.83
32.578000,-87.3750,15,105.71,6.89,3.83
32.588000,-87.2500,15,105.71,6.89,3.83
32.598000,-88.0000,15,105.71,6.89,3.83
32.608000,-87.7500,15,105.71,6.89,3.83
32.618000,-87.3750,15,105.71,6.89,3.83
32.628000,-87.2500,15,105.71,6.89,3.83
32.638000,-87.0000,15,105.71,6.89,3.83
32.648000,-86.0000,15,105.71,6.89,3.83
32.658000,-87.3750,15,105.71,6.89,3.83
32.668000,-87.8750,15,105.71,6.89,3.83
32.678000,-70.1250,15,105.71,6.89,3.83
32.688000,-83.8750,15,105.71,6.89,3.83
32.698000,-83.1250,15,105.71,6.89,3.83
32.708000,-78.8750,15,105.71,6.89,3.83
32.718000,-85.0000,15,105.71,6.89,3.83
32.728000,-86.5000,15,105.71,6.89,3.83
32.738000,-86.6250,15,105.71,6.89,3.83
32.748000,-86.3750,15,105.71,6.89,3.83
32.758000,-86.0000,15,105.71,6.89,3.83
32.768000,-85.0000,15,105.71,6.89,3.83
32.778000,-84.8750,15,105.71,6.89,3.83
32.788000,-85.0000,15,105.71,6.89,3.83
32.798000,-85.6250,15,105.71,6.89,3.83
32.808000,-85.8750,15,105.71,6.89,3.83
32.818000,-85.7500,15,105.71,6.89,3.83
32.828000,-85.7500,15,105.71,6.89,3.83
32.838000,-85.5000,15,105.71,6.89,3.83
32.848000,-86.2500,15,105.71,6.89,3.83
32.858000,-85.5000,15,105.71,6.89,3.83
32.868000,-85.3750,15,105.71,6.89,3.83
32.878000,-85.8750,15,105.71,6.89,3.83
32.888000,-84.7500,15,105.71,6.89,3.83
32.898000,-84.6250,15,105.71,6.89,3.83
32.908000,-83.8750,15,105.71,6.89,3.83
32.918000,-86.2500,15,105.71,6.89,3.83
32.928000,-85.8750,15,105.71,6.89,3.83
32.938000,-86.3750,15,105.71,6.89,3.83
32.948000,-85.7500,15,105.71,6.89,3.83
32.958000,-81.3750,15,105.71,6.89,3.83
32.968000,-82.7500,15,105.71,6.89,3.83
32.978000,-82.0000,15,105.71,6.89,3.83
32.988000,-79.3750,15,105.71,6.89,3.83
32.998000,-73.3750,15,105.71,6.89,3.83
33.008000,-81.3750,15,105.71,6.89,3.83
33.018000,-85.7500,15,105.71,6.89,3.83
33.028000,-85.7500,15,105.71,6.89,3.83
33.038000,-86.1250,15,105.71,6.89,3.83
33.048000,-85.3750,15,105.71,6.89,3.83
33.058000,-85.8750,15,105.71,6.89,3.83
33.068000,-85.6250,15,105.71,6.89,3.83
33.078000,-85.1250,15,105.71,6.89,3.83
33.088000,-86.2500,15,105.71,6.89,3.83
33.098000,-85.2500,15,105.71,6.89,3.83
33.108000,-87.0000,15,105.71,6.89,3.83
33.118000,-72.0000,15,105.71,6.89,3.83
33.128000,-83.7500,15,105.71,6.89,3.83
33.138000,-82.8750,15,105.71,6.89,3.83
33.148000,-81.8750,15,105.71,6.89,3.83
33.158000,-80.2500,15,105.71,6.89,3.83
33.168000,-79.0000,15,105.71,6.89,3.83
33.178000,-75.6250,15,105.71,6.89,3.83
33.188000,-72.7500,15,105.71,6.89,3.83
33.198000,-72.8750,15,105.71,6.89,3.83
33.208000,-76.8750,15,105.71,6.89,3.83
33.218000,-80.8750,15,105.71,6.89,3.83
33.228000,-84.2500,15,105.71,6.89,3.83
33.238000,-86.0000,15,105.71,6.89,3.83
33.248000,-86.5000,15,105.71,6.89,3.83
33.258000,-87.3750,15,105.71,6.89,3.83
33.268000,-87.1250,15,105.71,6.89,3.83
33.278000,-87.1250,15,105.71,6.89,3.83
33.288000,-85.6250,15,105.71,6.89,3.83
33.298000,-86.3750,15,105.71,6.89,3.83
33.308000,-86.8750,15,105.71,6.89,3.83
33.318000,-86.7500,15,105.71,6.89,3.83
33.328000,-86.8750,15,105.71,6.89,3.83
33.338000,-86.8750,15,105.71,6.89,3.83
33.348000,-87.0000,15,105.71,6.89,3.83
33.358000,-86.8750,15,105.71,6.89,3.83
33.368000,-86.7500,15,105.71,6.89,3.83
33.378000,-86.0000,15,105.71,6.89,3.83
33.388000,-86.2500,15,105.71,6.89,3.83
33.398000,-88.2500,15,105.71,6.89,3.83
33.408000,-88.1250,15,105.71,6.89,3.83
33.418000,-87.8750,15,105.71,6.89,3.83
33.428000,-88.1250,15,105.71,6.89,3.83
33.438000,-88.0000,15,105.71,6.89,3.83
33.448000,-77.2500,15,105.71,6.89,3.83
33.458000,-101.6250,15,105.71,6.89,3.83
33.468000,-82.8750,15,105.71,6.89,3.83
33.478000,-73.5000,15,105.71,6.89,3.83
33.488000,-72.8750,15,105.71,6.89,3.83
33.498000,-73.8750,15,105.71,6.89,3.83
33.508000,-77.1250,15,105.71,6.89,3.83
33.518000,-81.6250,15,105.71,6.89,3.83
33.528000,-86.5000,15,105.71,6.89,3.83
33.538000,-87.2500,15,105.71,6.89,3.83
33.548000,-87.5000,15,105.71,6.89,3.83
33.558000,-86.7500,15,105.71,6.89,3.83
33.568000,-87.6250,15,105.71,6.89,3.83
33.578000,-87.0000,15,105.71,6.89,3.83
33.588000,-87.0000,15,105.71,6.89,3.83
33.598000,-86.1250,15,105.71,6.89,3.83
33.608000,-86.6250,15,105.71,6.89,3.83
33.618000,-86.6250,15,105.71,6.89,3.83
33.628000,-86.8750,15,105.71,6.89,3.83
33.638000,-86.0000,15,105.71,6.89,3.83
33.648000,-86.5000,15,105.71,6.89,3.83
33.658000,-86.3750,15,105.71,6.89,3.83
33.668000,-88.1250,15,105.71,6.89,3.83
33.678000,-87.6250,15,105.71,6.89,3.83
33.688000,-88.2500,15,105.71,6.89,3.83
33.698000,-87.5000,15,105.71,6.89,3.83
33.708000,-88.2500,15,105.71,6.89,3.83
33.718000,-85.2500,15,105.71,6.89,3.83
33.728000,-86.8750,15,105.71,6.89,3.83
33.738000,-84.3750,15,105.71,6.89,3.83
33.748000,-83.2500,15,105.71,6.89,3.83
33.758000,-74.1250,15,105.71,6.89,3.83
33.768000,-73.5000,15,105.71,6.89,3.83
33.778000,-76.5000,15,105.71,6.89,3.83
33.788000,-83.5000,15,105.71,6.89,3.83
33.798000,-85.7500,15,105.71,6.89,3.83
33.808000,-87.1250,15,105.71,6.89,3.83
33.818000,-86.8750,15,105.71,6.89,3.83
33.828000,-87.8750,15,105.71,6.89,3.83
33.838000,-87.8750,15,105.71,6.89,3.83
33.848000,-87.1250,15,105.71,6.89,3.83
33.858000,-86.2500,15,105.71,6.89,3.83
33.868000,-87.1250,15,105.71,6.89,3.83
33.878000,-87.5000,15,105.71,6.89,3.83
33.888000,-86.3750,15,105.71,6.89,3.83
33.898000,-85.7500,15,105.71,6.89,3.83
33.908000,-85.0000,15,105.71,6.89,3.83
33.918000,-86.5000,15,105.71,6.89,3.83
33.928000,-87.5000,15,105.71,6.89,3.83
33.938000,-87.8750,15,105.71,6.89,3.83
33.948000,-88.1250,15,105.71,6.89,3.83
33.958000,-87.7500,15,105.71,6.89,3.83
33.968000,-85.1250,15,105.71,6.89,3.83
33.978000,-84.7500,15,105.71,6.89,3.83
33.988000,-83.7500,15,105.71,6.89,3.83
33.998000,-76.7500,15,105.71,6.89,3.83
34.008000,-73.8750,15,105.71,6.89,3.83
34.018000,-72.7500,15,105.71,6.89,3.83
34.028000,-74.8750,15,105.71,6.89,3.83
34.038000,-79.6250,15,105.71,6.89,3.83
34.048000,-85.1250,15,105.71,6.89,3.83
34.058000,-87.6250,15,105.71,6.89,3.83
34.068000,-87.5000,15,105.71,6.89,3.83
34.078000,-88.3750,15,105.71,6.89,3.83
34.088000,-87.7500,15,105.71,6.89,3.83
34.098000,-87.5000,15,105.71,6.89,3.83
34.108000,-87.2500,15,105.71,6.89,3.83
34.118000,-87.2500,15,105.71,6.89,3.83
34.128000,-87.5000,15,105.71,6.89,3.83
34.138000,-88.2500,15,105.71,6.89,3.83
34.148000,-88.1250,15,105.71,6.89,3.83
34.158000,-87.1250,15,105.71,6.89,3.83
34.168000,-86.2500,15,105.71,6.89,3.83
34.178000,-87.5000,15,105.71,6.89,3.83
34.188000,-88.7500,15,105.71,6.89,3.83
