timestamp_s,filtered_mV,loop,hr_bpm,snr_wb_db,snr_qrs_db
0.868000,-452.0000,0,,,
0.878000,-451.8750,0,,,
0.888000,-451.8750,0,,,
0.898000,-451.7500,0,,,
0.908000,-451.6250,0,,,
0.918000,-452.3750,0,,,
0.928000,-451.7500,0,,,
0.938000,-452.7500,0,,,
0.948000,-452.1250,0,,,
0.958000,-451.7500,0,,,
0.968000,-452.5000,0,,,
0.978000,-452.0000,0,,,
0.988000,-452.2500,0,,,
0.998000,-452.7500,0,,,
1.008000,-451.7500,0,,,
1.018000,-452.3750,0,,,
1.028000,-452.0000,0,,,
1.038000,-452.2500,0,,,
1.048000,-451.8750,0,,,
1.058000,-452.1250,0,,,
1.068000,-452.2500,0,,,
1.078000,-452.2500,0,,,
1.088000,-452.2500,0,,,
1.098000,-452.5000,0,,,
1.108000,-452.5000,0,,,
1.118000,-452.2500,0,,,
1.128000,-452.5000,0,,,
1.138000,-452.5000,0,,,
1.148000,-452.2500,0,,,
1.158000,-452.7500,0,,,
1.168000,-452.6250,0,,,
1.178000,-453.1250,0,,,
1.188000,-452.3750,0,,,
1.198000,-452.5000,0,,,
1.208000,-453.2500,0,,,
1.218000,-452.3750,0,,,
1.228000,-452.2500,0,,,
1.238000,-453.2500,0,,,
1.248000,-452.8750,0,,,
1.258000,-453.3750,0,,,
1.268000,-452.7500,0,,,
1.278000,-453.1250,0,,,
1.288000,-452.8750,0,,,
1.298000,-452.8750,0,,,
1.308000,-453.2500,0,,,
1.318000,-453.5000,0,,,
1.328000,-453.0000,0,,,
1.338000,-453.5000,0,,,
1.348000,-453.0000,0,,,
1.358000,-453.0000,0,,,
1.368000,-453.2500,0,,,
1.378000,-453.3750,0,,,
1.388000,-454.0000,0,,,
1.398000,-453.7500,0,,,
1.408000,-453.7500,0,,,
1.418000,-454.1250,0,,,
1.428000,-453.8750,0,,,
1.438000,-454.0000,0,,,
1.448000,-454.2500,0,,,
1.458000,-454.3750,0,,,
1.468000,-454.3750,0,,,
1.478000,-454.2500,0,,,
1.488000,-454.1250,0,,,
1.498000,-454.2500,0,,,
1.508000,-454.7500,0,,,
1.518000,-454.5000,0,,,
1.528000,-454.5000,0,,,
1.538000,-454.5000,0,,,
1.548000,-455.1250,0,,,
1.558000,-455.0000,0,,,
1.568000,-454.8750,0,,,
1.578000,-454.8750,0,,,
1.588000,-455.0000,0,,,
1.598000,-454.8750,0,,,
1.608000,-455.1250,0,,,
1.618000,-455.2500,0,,,
1.628000,-454.8750,0,,,
1.638000,-455.5000,0,,,
1.648000,-455.5000,0,,,
1.658000,-455.7500,0,,,
1.668000,-455.3750,0,,,
1.678000,-455.5000,0,,,
1.688000,-455.5000,0,,,
1.698000,-455.7500,0,,,
1.708000,-455.6250,0,,,
1.718000,-456.0000,0,,,
1.728000,-455.7500,0,,,
1.738000,-456.5000,0,,,
1.748000,-456.6250,0,,,
1.758000,-456.6250,0,,,
1.768000,-457.1250,0,,,
1.778000,-456.2500,0,,,
1.788000,-456.6250,0,,,
1.798000,-457.8750,0,,,
1.808000,-457.0000,0,,,
1.818000,-457.7500,0,,,
1.828000,-457.3750,0,,,
1.838000,-457.2500,0,,,
1.848000,-457.3750,0,,,
1.858000,-457.6250,0,,,
1.868000,-457.0000,0,,,
1.878000,-457.5000,0,,,
1.888000,-457.7500,0,,,
1.898000,-457.3750,0,,,
1.908000,-458.5000,0,,,
1.918000,-458.5000,0,,,
1.928000,-458.0000,0,,,
1.938000,-457.5000,0,,,
1.948000,-458.6250,0,,,
1.958000,-458.1250,0,,,
1.968000,-458.2500,0,,,
1.978000,-458.8750,0,,,
1.988000,-458.3750,0,,,
1.998000,-459.2500,0,,,
2.008000,-459.2500,0,,,
2.018000,-458.1250,0,,,
2.028000,-458.7500,0,,,
2.038000,-458.8750,0,,,
2.048000,-459.2500,0,,,
2.058000,-458.8750,0,,,
2.068000,-458.5000,0,,,
2.078000,-458.0000,0,,,
2.088000,-459.5000,0,,,
2.098000,-458.3750,0,,,
2.108000,-458.5000,0,,,
2.118000,-458.3750,0,,,
2.128000,-458.6250,0,,,
2.138000,-458.6250,0,,,
2.148000,-459.2500,0,,,
2.158000,-458.5000,0,,,
2.168000,-459.1250,0,,,
2.178000,-459.3750,0,,,
2.188000,-459.1250,0,,,
2.198000,-459.1250,0,,,
2.208000,-459.8750,0,,,
2.218000,-459.5000,0,,,
2.228000,-459.7500,0,,,
2.238000,-459.1250,0,,,
2.248000,-459.2500,0,,,
2.258000,-459.1250,0,,,
2.268000,-459.3750,0,,,
2.278000,-459.8750,0,,,
2.288000,-459.7500,0,,,
2.298000,-458.7500,0,,,
2.308000,-459.3750,0,,,
2.318000,-459.5000,0,,,
2.328000,-460.1250,0,,,
2.338000,-459.7500,0,,,
2.348000,-460.1250,0,,,
2.358000,-459.7500,0,,,
2.368000,-459.6250,0,,,
2.378000,-459.3750,0,,,
2.388000,-459.7500,0,,,
2.398000,-459.7500,0,,,
2.408000,-459.2500,0,,,
2.418000,-459.7500,0,,,
2.428000,-460.1250,0,,,
2.438000,-459.7500,0,,,
2.448000,-460.3750,0,,,
2.458000,-459.7500,0,,,
2.468000,-460.1250,0,,,
2.478000,-460.1250,0,,,
2.488000,-459.6250,0,,,
2.498000,-460.1250,0,,,
2.508000,-460.8750,0,,,
2.518000,-460.0000,0,,,
2.528000,-460.1250,0,,,
2.538000,-460.7500,0,,,
2.548000,-460.7500,0,,,
2.558000,-461.1250,0,,,
2.568000,-460.8750,0,,,
2.578000,-460.7500,0,,,
2.588000,-461.1250,0,,,
2.598000,-460.2500,0,,,
2.608000,-460.2500,0,,,
2.618000,-460.7500,0,,,
2.628000,-461.5000,0,,,
2.638000,-461.2500,0,,,
2.648000,-460.2500,0,,,
2.658000,-461.0000,0,,,
2.668000,-460.7500,0,,,
2.678000,-460.8750,0,,,
2.688000,-461.5000,0,,,
2.698000,-461.0000,0,,,
2.708000,-461.1250,0,,,
2.718000,-461.2500,0,,,
2.728000,-461.8750,0,,,
2.738000,-461.5000,0,,,
2.748000,-461.8750,0,,,
2.758000,-461.2500,0,,,
2.768000,-462.2500,0,,,
2.778000,-462.2500,0,,,
2.788000,-462.3750,0,,,
2.798000,-461.5000,0,,,
2.808000,-461.6250,0,,,
2.818000,-462.2500,0,,,
2.828000,-461.2500,0,,,
2.838000,-462.5000,0,,,
2.848000,-462.3750,0,,,
2.858000,-462.2500,0,,,
2.868000,-462.8750,0,,,
2.878000,-462.2500,0,,,
2.888000,-463.0000,0,,,
2.898000,-461.7500,0,,,
2.908000,-460.8750,0,,,
2.918000,-462.5000,0,,,
2.928000,-461.7500,0,,,
2.938000,-462.0000,0,,,
2.948000,-461.8750,0,,,
2.958000,-463.0000,0,,,
2.968000,-462.6250,0,,,
2.978000,-463.1250,0,,,
2.988000,-462.2500,0,,,
2.998000,-462.5000,0,,,
3.008000,-462.8750,0,,,
3.018000,-462.2500,0,,,
3.028000,-463.1250,0,,,
3.038000,-463.0000,0,,,
3.048000,-463.0000,0,,,
3.058000,-462.3750,0,,,
3.068000,-462.6250,0,,,
3.078000,-463.2500,0,,,
3.088000,-462.6250,0,,,
3.098000,-463.2500,0,,,
3.108000,-462.7500,0,,,
3.118000,-463.1250,0,,,
3.128000,-463.1250,0,,,
3.138000,-463.1250,0,,,
3.148000,-462.1250,0,,,
3.158000,-462.7500,0,,,
3.168000,-462.6250,0,,,
3.178000,-462.8750,0,,,
3.188000,-463.1250,0,,,
3.198000,-462.8750,0,,,
3.208000,-462.7500,0,,,
3.218000,-463.2500,0,,,
3.228000,-462.6250,0,,,
3.238000,-462.6250,0,,,
3.248000,-462.3750,0,,,
3.258000,-462.2500,0,,,
3.268000,-462.6250,0,,,
3.278000,-462.5000,0,,,
3.288000,-462.2500,0,,,
3.298000,-462.6250,0,,,
3.308000,-462.1250,0,,,
3.318000,-463.2500,0,,,
3.328000,-462.2500,0,,,
3.338000,-463.0000,0,,,
3.348000,-462.1250,0,,,
3.358000,-462.6250,0,,,
3.368000,-462.6250,0,,,
3.378000,-462.7500,0,,,
3.388000,-462.5000,0,,,
3.398000,-462.2500,0,,,
3.408000,-462.7500,0,,,
3.418000,-462.8750,0,,,
3.428000,-462.8750,0,,,
3.438000,-462.7500,0,,,
3.448000,-462.2500,0,,,
3.458000,-462.8750,0,,,
3.468000,-463.1250,0,,,
3.478000,-463.2500,0,,,
3.488000,-463.5000,0,,,
3.498000,-462.8750,0,,,
3.508000,-463.3750,0,,,
3.518000,-463.1250,0,,,
3.528000,-463.3750,0,,,
3.538000,-463.1250,0,,,
3.548000,-462.8750,0,,,
3.558000,-463.0000,0,,,
3.568000,-462.8750,0,,,
3.578000,-463.0000,0,,,
3.588000,-463.0000,0,,,
3.598000,-463.5000,0,,,
3.608000,-463.1250,0,,,
3.618000,-463.8750,0,,,
3.628000,-463.3750,0,,,
3.638000,-463.6250,0,,,
3.648000,-463.1250,0,,,
3.658000,-463.0000,0,,,
3.668000,-463.6250,0,,,
3.678000,-462.6250,0,,,
3.688000,-463.0000,0,,,
3.698000,-462.7500,0,,,
3.708000,-463.2500,0,,,
3.718000,-462.2500,0,,,
3.728000,-463.0000,0,,,
3.738000,-462.2500,0,,,
3.748000,-463.1250,0,,,
3.758000,-462.2500,0,,,
3.768000,-462.0000,0,,,
3.778000,-462.7500,0,,,
3.788000,-462.1250,0,,,
3.798000,-462.1250,0,,,
3.808000,-462.3750,0,,,
3.818000,-462.5000,0,,,
3.828000,-462.3750,0,,,
3.838000,-462.7500,0,,,
3.848000,-462.6250,0,,,
3.858000,-462.5000,0,,,
3.868000,-462.3750,0,,,
3.878000,-461.8750,0,,,
3.888000,-462.1250,0,,,
3.898000,-461.6250,0,,,
3.908000,-462.3750,0,,,
3.918000,-462.1250,0,,,
3.928000,-462.3750,0,,,
3.938000,-462.5000,0,,,
3.948000,-462.2500,0,,,
3.958000,-462.2500,0,,,
3.968000,-461.7500,0,,,
3.978000,-462.5000,0,,,
3.988000,-461.6250,0,,,
3.998000,-463.2500,0,,,
4.008000,-462.1250,0,,,
4.018000,-461.8750,0,,,
4.028000,-462.0000,0,,,
4.038000,-462.1250,0,,,
4.048000,-462.0000,0,,,
4.058000,-462.3750,0,,,
4.068000,-462.8750,0,,,
4.078000,-462.5000,0,,,
4.088000,-463.0000,0,,,
4.098000,-463.3750,0,,,
4.108000,-463.6250,0,,,
4.118000,-463.5000,0,,,
4.128000,-463.6250,0,,,
4.138000,-463.2500,0,,,
4.148000,-464.0000,0,,,
4.158000,-462.7500,0,,,
4.168000,-463.0000,0,,,
4.178000,-463.5000,0,,,
4.188000,-463.0000,0,,,
4.198000,-463.3750,0,,,
4.208000,-463.6250,0,,,
4.218000,-463.5000,0,,,
4.228000,-464.0000,0,,,
4.238000,-463.6250,0,,,
4.248000,-462.8750,0,,,
4.258000,-462.6250,0,,,
4.268000,-462.7500,0,,,
4.278000,-462.5000,0,,,
4.288000,-462.3750,0,,,
4.298000,-462.5000,0,,,
4.308000,-463.2500,0,,,
4.318000,-462.8750,0,,,
4.328000,-463.2500,0,,,
4.338000,-462.7500,0,,,
4.348000,-462.6250,0,,,
4.358000,-463.6250,0,,,
4.368000,-463.2500,0,,,
4.378000,-463.1250,0,,,
4.388000,-462.8750,0,,,
4.398000,-463.0000,0,,,
4.408000,-463.1250,0,,,
4.418000,-463.1250,0,,,
4.428000,-463.1250,0,,,
4.438000,-463.6250,0,,,
4.448000,-462.8750,0,,,
4.458000,-462.5000,0,,,
4.468000,-463.3750,0,,,
4.478000,-463.1250,0,,,
4.488000,-463.3750,0,,,
4.498000,-462.3750,0,,,
4.508000,-462.5000,0,,,
4.518000,-462.0000,0,,,
4.528000,-462.3750,0,,,
4.538000,-462.3750,0,,,
4.548000,-462.0000,0,,,
4.558000,-462.0000,0,,,
4.568000,-462.6250,0,,,
4.578000,-463.3750,0,,,
4.588000,-462.8750,0,,,
4.598000,-462.2500,0,,,
4.608000,-462.3750,0,,,
4.618000,-462.5000,0,,,
4.628000,-462.0000,0,,,
4.638000,-462.0000,0,,,
4.648000,-463.6250,0,,,
4.658000,-462.6250,0,,,
4.668000,-462.7500,0,,,
4.678000,-461.7500,0,,,
4.688000,-462.7500,0,,,
4.698000,-461.8750,0,,,
4.708000,-462.8750,0,,,
4.718000,-462.5000,0,,,
4.728000,-461.6250,0,,,
4.738000,-461.8750,0,,,
4.748000,-462.8750,0,,,
4.758000,-461.8750,0,,,
4.768000,-462.1250,0,,,
4.778000,-461.6250,0,,,
4.788000,-462.6250,0,,,
4.798000,-461.8750,0,,,
4.808000,-461.8750,0,,,
4.818000,-462.8750,0,,,
4.828000,-462.1250,0,,,
4.838000,-461.6250,0,,,
4.848000,-462.0000,0,,,
4.858000,-461.0000,0,,,
4.868000,-461.8750,0,,,
4.878000,-461.3750,0,,,
4.888000,-461.8750,0,,,
4.898000,-462.0000,0,,,
4.908000,-462.1250,0,,,
4.918000,-461.7500,0,,,
4.928000,-460.7500,0,,,
4.938000,-461.7500,0,,,
4.948000,-461.6250,0,,,
4.958000,-461.0000,0,,,
4.968000,-461.0000,0,,,
4.978000,-460.8750,0,,,
4.988000,-461.3750,0,,,
4.998000,-461.2500,0,,,
5.008000,-461.1250,0,,,
5.018000,-461.0000,0,,,
5.028000,-461.2500,0,,,
5.038000,-461.2500,0,,,
5.048000,-460.1250,0,,,
5.058000,-460.3750,0,,,
5.068000,-460.2500,0,,,
5.078000,-459.1250,0,,,
5.088000,-460.2500,0,,,
5.098000,-460.5000,0,,,
5.108000,-460.8750,0,,,
5.118000,-459.7500,0,,,
5.128000,-460.0000,0,,,
5.138000,-460.0000,0,,,
5.148000,-459.3750,0,,,
5.158000,-459.5000,0,,,
5.168000,-460.1250,0,,,
5.178000,-460.3750,0,,,
5.188000,-460.2500,0,,,
5.198000,-460.5000,0,,,
5.208000,-459.8750,0,,,
5.218000,-460.0000,0,,,
5.228000,-460.0000,0,,,
5.238000,-460.1250,0,,,
5.248000,-459.8750,0,,,
5.258000,-459.2500,0,,,
5.268000,-459.3750,0,,,
5.278000,-459.7500,0,,,
5.288000,-459.7500,0,,,
5.298000,-459.8750,0,,,
5.308000,-459.5000,0,,,
5.318000,-460.1250,0,,,
5.328000,-459.1250,0,,,
5.338000,-459.3750,0,,,
5.348000,-459.8750,0,,,
5.358000,-459.6250,0,,,
5.368000,-459.3750,0,,,
5.378000,-460.0000,0,,,
5.388000,-459.6250,0,,,
5.398000,-459.8750,0,,,
5.408000,-459.7500,0,,,
5.418000,-459.1250,0,,,
5.428000,-460.2500,0,,,
5.438000,-459.6250,0,,,
5.448000,-459.3750,0,,,
5.458000,-459.6250,0,,,
5.468000,-460.1250,0,,,
5.478000,-459.6250,0,,,
5.488000,-460.1250,0,,,
5.498000,-460.1250,0,,,
5.508000,-460.3750,0,,,
5.518000,-459.6250,0,,,
5.528000,-460.5000,0,,,
5.538000,-460.2500,0,,,
5.548000,-460.2500,0,,,
5.558000,-460.7500,0,,,
5.568000,-461.2500,0,,,
5.578000,-460.5000,0,,,
5.588000,-460.7500,0,,,
5.598000,-461.0000,0,,,
5.608000,-460.3750,0,,,
5.618000,-461.2500,0,,,
5.628000,-461.2500,0,,,
5.638000,-461.5000,0,,,
5.648000,-460.5000,0,,,
5.658000,-461.5000,0,,,
5.668000,-461.1250,0,,,
5.678000,-461.3750,0,,,
5.688000,-462.1250,0,,,
5.698000,-461.2500,0,,,
5.708000,-462.3750,0,,,
5.718000,-462.0000,0,,,
5.728000,-462.2500,0,,,
5.738000,-461.8750,0,,,
5.748000,-461.3750,0,,,
5.758000,-462.0000,0,,,
5.768000,-462.7500,0,,,
5.778000,-462.7500,0,,,
5.788000,-463.2500,0,,,
5.798000,-462.8750,0,,,
5.808000,-463.1250,0,,,
5.818000,-463.3750,0,,,
5.828000,-463.8750,0,,,
5.838000,-463.7500,0,,,
5.848000,-463.6250,0,,,
5.858000,-463.0000,0,,,
5.868000,-463.5000,0,,,
5.878000,-464.3750,0,,,
5.888000,-462.6250,0,,,
5.898000,-463.1250,0,,,
5.908000,-463.0000,0,,,
5.918000,-463.1250,0,,,
5.928000,-462.7500,0,,,
5.938000,-463.6250,0,,,
5.948000,-464.1250,0,,,
5.958000,-463.8750,0,,,
5.968000,-463.6250,0,,,
5.978000,-463.1250,0,,,
5.988000,-464.0000,0,,,
5.998000,-464.1250,0,,,
6.008000,-464.0000,0,,,
6.018000,-463.3750,0,,,
6.028000,-463.2500,0,,,
6.038000,-463.8750,0,,,
6.048000,-463.7500,0,,,
6.058000,-464.6250,3,,-0.07,
6.068000,-464.3750,3,,-0.07,
6.078000,-464.1250,3,,-0.07,
6.088000,-464.5000,3,,-0.07,
6.098000,-464.1250,3,,-0.07,
6.108000,-465.1250,3,,-0.07,
6.118000,-464.0000,3,,-0.07,
6.128000,-463.3750,3,,-0.07,
6.138000,-464.5000,3,,-0.07,
6.148000,-464.0000,3,,-0.07,
6.158000,-464.1250,3,,-0.07,
6.168000,-464.0000,3,,-0.07,
6.178000,-464.6250,3,,-0.07,
6.188000,-463.7500,3,,-0.07,
6.198000,-464.6250,3,,-0.07,
6.208000,-463.7500,3,,-0.07,
6.218000,-464.1250,3,,-0.07,
6.228000,-465.3750,3,,-0.07,
6.238000,-464.5000,3,,-0.07,
6.248000,-465.6250,3,,-0.07,
6.258000,-465.7500,3,,-0.07,
6.268000,-464.8750,3,,-0.07,
6.278000,-464.0000,3,,-0.07,
6.288000,-465.7500,3,,-0.07,
6.298000,-466.6250,3,,-0.07,
6.308000,-464.6250,3,,-0.07,
6.318000,-465.1250,3,,-0.07,
6.328000,-466.1250,3,,-0.07,
6.338000,-466.7500,3,,-0.07,
6.348000,-466.1250,3,,-0.07,
6.358000,-465.2500,3,,-0.07,
6.368000,-465.8750,3,,-0.07,
6.378000,-465.7500,3,,-0.07,
6.388000,-465.8750,3,,-0.07,
6.398000,-465.6250,3,,-0.07,
6.408000,-466.0000,3,,-0.07,
6.418000,-466.3750,3,,-0.07,
6.428000,-466.3750,3,,-0.07,
6.438000,-466.5000,3,,-0.07,
6.448000,-466.0000,3,,-0.07,
6.458000,-465.7500,3,,-0.07,
6.468000,-466.3750,3,,-0.07,
6.478000,-466.3750,3,,-0.07,
6.488000,-466.7500,3,,-0.07,
6.498000,-467.2500,3,,-0.07,
6.508000,-466.6250,3,,-0.07,
6.518000,-466.7500,3,,-0.07,
6.528000,-467.2500,3,,-0.07,
6.538000,-467.2500,3,,-0.07,
6.548000,-467.2500,3,,-0.07,
6.558000,-466.3750,3,,-0.07,
6.568000,-466.7500,3,,-0.07,
6.578000,-466.5000,3,,-0.07,
6.588000,-466.1250,3,,-0.07,
6.598000,-466.6250,3,,-0.07,
6.608000,-466.7500,3,,-0.07,
6.618000,-465.8750,3,,-0.07,
6.628000,-466.3750,3,,-0.07,
6.638000,-466.5000,3,,-0.07,
6.648000,-466.7500,3,,-0.07,
6.658000,-467.1250,3,,-0.07,
6.668000,-467.3750,3,,-0.07,
6.678000,-467.8750,3,,-0.07,
6.688000,-467.0000,3,,-0.07,
6.698000,-468.0000,3,,-0.07,
6.708000,-467.0000,3,,-0.07,
6.718000,-466.7500,3,,-0.07,
6.728000,-467.0000,3,,-0.07,
6.738000,-466.7500,3,,-0.07,
6.748000,-467.3750,3,,-0.07,
6.758000,-467.1250,3,,-0.07,
6.768000,-467.8750,3,,-0.07,
6.778000,-467.6250,3,,-0.07,
6.788000,-467.7500,3,,-0.07,
6.798000,-467.7500,3,,-0.07,
6.808000,-467.7500,3,,-0.07,
6.818000,-468.0000,3,,-0.07,
6.828000,-467.6250,3,,-0.07,
6.838000,-468.1250,3,,-0.07,
6.848000,-467.7500,3,,-0.07,
6.858000,-468.1250,3,,-0.07,
6.868000,-468.0000,3,,-0.07,
6.878000,-469.0000,3,,-0.07,
6.888000,-468.0000,3,,-0.07,
6.898000,-468.3750,3,,-0.07,
6.908000,-468.7500,3,,-0.07,
6.918000,-468.7500,3,,-0.07,
6.928000,-468.8750,3,,-0.07,
6.938000,-469.5000,3,,-0.07,
6.948000,-468.3750,3,,-0.07,
6.958000,-468.2500,3,,-0.07,
6.968000,-468.2500,3,,-0.07,
6.978000,-470.2500,3,,-0.07,
6.988000,-468.0000,3,,-0.07,
6.998000,-469.0000,3,,-0.07,
7.008000,-468.3750,3,,-0.07,
7.018000,-469.8750,3,,-0.07,
7.028000,-469.5000,3,,-0.07,
7.038000,-469.0000,3,,-0.07,
7.048000,-469.7500,3,,-0.07,
7.058000,-470.2500,3,,-0.07,
7.068000,-470.0000,3,,-0.07,
7.078000,-470.2500,3,,-0.07,
7.088000,-470.3750,3,,-0.07,
7.098000,-468.7500,3,,-0.07,
7.108000,-469.6250,3,,-0.07,
7.118000,-469.2500,3,,-0.07,
7.128000,-470.7500,3,,-0.07,
7.138000,-469.8750,3,,-0.07,
7.148000,-469.0000,3,,-0.07,
7.158000,-469.2500,3,,-0.07,
7.168000,-469.2500,3,,-0.07,
7.178000,-469.7500,3,,-0.07,
7.188000,-470.6250,3,,-0.07,
7.198000,-469.0000,3,,-0.07,
7.208000,-470.3750,3,,-0.07,
7.218000,-469.1250,3,,-0.07,
7.228000,-469.6250,3,,-0.07,
7.238000,-469.2500,3,,-0.07,
7.248000,-469.2500,3,,-0.07,
7.258000,-469.5000,3,,-0.07,
7.268000,-469.6250,3,,-0.07,
7.278000,-469.3750,3,,-0.07,
7.288000,-470.2500,3,,-0.07,
7.298000,-469.5000,3,,-0.07,
7.308000,-469.8750,3,,-0.07,
7.318000,-469.8750,3,,-0.07,
7.328000,-469.3750,3,,-0.07,
7.338000,-469.3750,3,,-0.07,
7.348000,-470.0000,3,,-0.07,
7.358000,-469.5000,3,,-0.07,
7.368000,-468.8750,3,,-0.07,
7.378000,-470.7500,3,,-0.07,
7.388000,-469.3750,3,,-0.07,
7.398000,-469.8750,3,,-0.07,
7.408000,-470.2500,3,,-0.07,
7.418000,-470.8750,3,,-0.07,
7.428000,-470.6250,3,,-0.07,
7.438000,-471.1250,3,,-0.07,
7.448000,-470.0000,3,,-0.07,
7.458000,-471.5000,3,,-0.07,
7.468000,-471.5000,3,,-0.07,
7.478000,-472.5000,3,,-0.07,
7.488000,-470.3750,3,,-0.07,
7.498000,-471.2500,3,,-0.07,
7.508000,-470.5000,3,,-0.07,
7.518000,-471.1250,3,,-0.07,
7.528000,-471.5000,3,,-0.07,
7.538000,-471.2500,3,,-0.07,
7.548000,-471.8750,3,,-0.07,
7.558000,-471.5000,3,,-0.07,
7.568000,-472.6250,3,,-0.07,
7.578000,-471.7500,3,,-0.07,
7.588000,-471.3750,3,,-0.07,
7.598000,-473.2500,3,,-0.07,
7.608000,-472.5000,3,,-0.07,
7.618000,-471.5000,3,,-0.07,
7.628000,-473.7500,3,,-0.07,
7.638000,-476.2500,3,,-0.07,
7.648000,-474.8750,3,,-0.07,
7.658000,-477.7500,3,,-0.07,
7.668000,-476.8750,3,,-0.07,
7.678000,-477.5000,3,,-0.07,
7.688000,-477.6250,3,,-0.07,
7.698000,-479.3750,3,,-0.07,
7.708000,-480.3750,3,,-0.07,
7.718000,-478.8750,3,,-0.07,
7.728000,-479.3750,3,,-0.07,
7.738000,-479.3750,3,,-0.07,
7.748000,-481.1250,3,,-0.07,
7.758000,-481.3750,3,,-0.07,
7.768000,-482.3750,3,,-0.07,
7.778000,-482.0000,3,,-0.07,
7.788000,-485.0000,3,,-0.07,
7.798000,-481.0000,3,,-0.07,
7.808000,-482.8750,3,,-0.07,
7.818000,-482.5000,3,,-0.07,
7.828000,-484.3750,3,,-0.07,
7.838000,-484.2500,3,,-0.07,
7.848000,-483.7500,3,,-0.07,
7.858000,-499.0000,3,,-0.07,
7.868000,-531.1250,3,,-0.07,
7.878000,-517.8750,3,,-0.07,
7.888000,-496.2500,3,,-0.07,
7.898000,-463.5000,3,,-0.07,
7.908000,-471.8750,3,,-0.07,
7.918000,-513.5000,3,,-0.07,
7.928000,-508.6250,3,,-0.07,
7.938000,-511.8750,3,,-0.07,
7.948000,-512.3750,3,,-0.07,
7.958000,-514.0000,3,,-0.07,
7.968000,-516.7500,3,,-0.07,
7.978000,-518.8750,3,,-0.07,
7.988000,-518.5000,3,,-0.07,
7.998000,-521.0000,3,,-0.07,
8.008000,-523.3750,3,,-0.07,
8.018000,-521.1250,3,,-0.07,
8.028000,-522.0000,3,,-0.07,
8.038000,-522.7500,3,,-0.07,
8.048000,-524.5000,3,,-0.07,
8.058000,-523.7500,3,,-0.07,
8.068000,-526.7500,3,,-0.07,
8.078000,-525.3750,3,,-0.07,
8.088000,-525.8750,3,,-0.07,
8.098000,-528.2500,3,,-0.07,
8.108000,-529.2500,3,,-0.07,
8.118000,-529.2500,3,,-0.07,
8.128000,-530.5000,3,,-0.07,
8.138000,-530.6250,3,,-0.07,
8.148000,-531.3750,3,,-0.07,
8.158000,-531.2500,3,,-0.07,
8.168000,-531.1250,3,,-0.07,
8.178000,-533.7500,3,,-0.07,
8.188000,-534.5000,3,,-0.07,
8.198000,-534.7500,3,,-0.07,
8.208000,-535.0000,3,,-0.07,
8.218000,-536.6250,3,,-0.07,
8.228000,-535.1250,3,,-0.07,
8.238000,-536.8750,3,,-0.07,
8.248000,-538.3750,3,,-0.07,
8.258000,-538.0000,3,,-0.07,
8.268000,-542.8750,3,,-0.07,
8.278000,-542.7500,3,,-0.07,
8.288000,-543.3750,3,,-0.07,
8.298000,-543.3750,3,,-0.07,
8.308000,-543.5000,3,,-0.07,
8.318000,-544.7500,3,,-0.07,
8.328000,-545.6250,3,,-0.07,
8.338000,-546.6250,3,,-0.07,
8.348000,-546.1250,3,,-0.07,
8.358000,-546.0000,3,,-0.07,
8.368000,-548.8750,3,,-0.07,
8.378000,-547.8750,3,,-0.07,
8.388000,-548.6250,3,,-0.07,
8.398000,-547.3750,3,,-0.07,
8.408000,-547.7500,3,,-0.07,
8.418000,-549.5000,3,,-0.07,
8.428000,-549.5000,3,,-0.07,
8.438000,-549.3750,3,,-0.07,
8.448000,-550.1250,3,,-0.07,
8.458000,-550.3750,3,,-0.07,
8.468000,-550.8750,3,,-0.07,
8.478000,-551.0000,3,,-0.07,
8.488000,-551.1250,3,,-0.07,
8.498000,-549.7500,3,,-0.07,
8.508000,-550.1250,3,,-0.07,
8.518000,-550.8750,3,,-0.07,
8.528000,-551.3750,3,,-0.07,
8.538000,-552.0000,3,,-0.07,
8.548000,-551.2500,3,,-0.07,
8.558000,-550.8750,3,,-0.07,
8.568000,-552.0000,3,,-0.07,
8.578000,-551.3750,3,,-0.07,
8.588000,-553.2500,3,,-0.07,
8.598000,-552.6250,3,,-0.07,
8.608000,-551.8750,3,,-0.07,
8.618000,-552.5000,3,,-0.07,
8.628000,-553.0000,3,,-0.07,
8.638000,-551.3750,3,,-0.07,
8.648000,-552.8750,3,,-0.07,
8.658000,-553.0000,3,,-0.07,
8.668000,-553.0000,3,,-0.07,
8.678000,-554.2500,3,,-0.07,
8.688000,-554.2500,3,,-0.07,
8.698000,-553.2500,3,,-0.07,
8.708000,-554.3750,3,,-0.07,
8.718000,-554.7500,3,,-0.07,
8.728000,-554.2500,3,,-0.07,
8.738000,-554.5000,3,,-0.07,
8.748000,-555.0000,3,,-0.07,
8.758000,-553.7500,3,,-0.07,
8.768000,-556.1250,3,,-0.07,
8.778000,-555.7500,5,,-0.06,
8.788000,-556.3750,5,,-0.06,
8.798000,-556.2500,5,,-0.06,
8.808000,-556.1250,5,,-0.06,
8.818000,-556.2500,5,,-0.06,
8.828000,-555.5000,5,,-0.06,
8.838000,-555.6250,5,,-0.06,
8.848000,-555.6250,5,,-0.06,
8.858000,-556.5000,5,,-0.06,
8.868000,-557.0000,5,,-0.06,
8.878000,-557.3750,5,,-0.06,
8.888000,-556.0000,5,,-0.06,
8.898000,-558.8750,5,,-0.06,
8.908000,-557.7500,5,,-0.06,
8.918000,-557.1250,5,,-0.06,
8.928000,-558.5000,5,,-0.06,
8.938000,-557.6250,5,,-0.06,
8.948000,-558.2500,5,,-0.06,
8.958000,-558.7500,5,,-0.06,
8.968000,-558.6250,5,,-0.06,
8.978000,-558.7500,5,,-0.06,
8.988000,-558.8750,5,,-0.06,
8.998000,-559.2500,5,,-0.06,
9.008000,-560.1250,5,,-0.06,
9.018000,-559.5000,5,,-0.06,
9.028000,-558.3750,5,,-0.06,
9.038000,-559.2500,5,,-0.06,
9.048000,-560.0000,5,,-0.06,
9.058000,-560.3750,5,,-0.06,
9.068000,-560.2500,5,,-0.06,
9.078000,-560.7500,5,,-0.06,
9.088000,-560.0000,5,,-0.06,
9.098000,-560.5000,5,,-0.06,
9.108000,-561.1250,5,,-0.06,
9.118000,-561.2500,5,,-0.06,
9.128000,-561.7500,5,,-0.06,
9.138000,-562.2500,5,,-0.06,
9.148000,-562.2500,5,,-0.06,
9.158000,-561.7500,5,,-0.06,
9.168000,-561.6250,5,,-0.06,
9.178000,-561.7500,5,,-0.06,
9.188000,-563.2500,5,,-0.06,
9.198000,-562.3750,5,,-0.06,
9.208000,-563.7500,5,,-0.06,
9.218000,-563.5000,5,,-0.06,
9.228000,-563.1250,5,,-0.06,
9.238000,-563.3750,5,,-0.06,
9.248000,-564.2500,5,,-0.06,
9.258000,-564.3750,5,,-0.06,
9.268000,-564.0000,5,,-0.06,
9.278000,-563.6250,5,,-0.06,
9.288000,-563.5000,5,,-0.06,
9.298000,-563.8750,5,,-0.06,
9.308000,-564.2500,5,,-0.06,
9.318000,-563.6250,5,,-0.06,
9.328000,-565.3750,5,,-0.06,
9.338000,-566.1250,5,,-0.06,
9.348000,-565.1250,5,,-0.06,
9.358000,-566.0000,5,,-0.06,
9.368000,-566.6250,5,,-0.06,
9.378000,-565.8750,5,,-0.06,
9.388000,-565.6250,5,,-0.06,
9.398000,-566.6250,5,,-0.06,
9.408000,-566.5000,5,,-0.06,
9.418000,-566.5000,5,,-0.06,
9.428000,-566.3750,5,,-0.06,
9.438000,-567.1250,5,,-0.06,
9.448000,-567.2500,5,,-0.06,
9.458000,-567.0000,5,,-0.06,
9.468000,-567.8750,5,,-0.06,
9.478000,-568.5000,5,,-0.06,
9.488000,-568.3750,5,,-0.06,
9.498000,-568.0000,5,,-0.06,
9.508000,-568.2500,5,,-0.06,
9.518000,-569.1250,5,,-0.06,
9.528000,-568.5000,5,,-0.06,
9.538000,-568.1250,5,,-0.06,
9.548000,-568.7500,5,,-0.06,
9.558000,-568.6250,5,,-0.06,
9.568000,-569.5000,5,,-0.06,
9.578000,-569.6250,5,,-0.06,
9.588000,-569.6250,5,,-0.06,
9.598000,-569.8750,5,,-0.06,
9.608000,-569.8750,5,,-0.06,
9.618000,-569.6250,5,,-0.06,
9.628000,-570.2500,5,,-0.06,
9.638000,-569.7500,5,,-0.06,
9.648000,-570.3750,5,,-0.06,
9.658000,-570.1250,5,,-0.06,
9.668000,-571.1250,5,,-0.06,
9.678000,-570.5000,5,,-0.06,
9.688000,-570.2500,5,,-0.06,
9.698000,-571.5000,5,,-0.06,
9.708000,-571.1250,5,,-0.06,
9.718000,-570.7500,5,,-0.06,
9.728000,-570.8750,5,,-0.06,
9.738000,-571.2500,5,,-0.06,
9.748000,-572.0000,5,,-0.06,
9.758000,-571.8750,5,,-0.06,
9.768000,-571.7500,5,,-0.06,
9.778000,-572.0000,5,,-0.06,
9.788000,-572.0000,5,,-0.06,
9.798000,-572.0000,5,,-0.06,
9.808000,-572.0000,5,,-0.06,
9.818000,-572.8750,5,,-0.06,
9.828000,-572.5000,5,,-0.06,
9.838000,-572.7500,5,,-0.06,
9.848000,-571.8750,5,,-0.06,
9.858000,-573.3750,5,,-0.06,
9.868000,-572.2500,5,,-0.06,
9.878000,-573.0000,5,,-0.06,
9.888000,-572.7500,5,,-0.06,
9.898000,-573.2500,5,,-0.06,
9.908000,-574.1250,5,,-0.06,
9.918000,-574.2500,5,,-0.06,
9.928000,-573.7500,5,,-0.06,
9.938000,-574.5000,5,,-0.06,
9.948000,-574.7500,5,,-0.06,
9.958000,-575.1250,5,,-0.06,
9.968000,-573.7500,5,,-0.06,
9.978000,-574.5000,5,,-0.06,
9.988000,-574.3750,5,,-0.06,
9.998000,-574.3750,5,,-0.06,
10.008000,-574.7500,5,,-0.06,
10.018000,-576.0000,5,,-0.06,
10.028000,-575.6250,5,,-0.06,
10.038000,-576.2500,5,,-0.06,
10.048000,-575.3750,5,,-0.06,
10.058000,-575.5000,5,,-0.06,
10.068000,-576.2500,5,,-0.06,
10.078000,-576.6250,5,,-0.06,
10.088000,-576.5000,5,,-0.06,
10.098000,-576.8750,5,,-0.06,
10.108000,-576.8750,5,,-0.06,
10.118000,-578.1250,5,,-0.06,
10.128000,-577.7500,5,,-0.06,
10.138000,-578.1250,5,,-0.06,
10.148000,-577.3750,5,,-0.06,
10.158000,-578.5000,5,,-0.06,
10.168000,-578.2500,5,,-0.06,
10.178000,-576.8750,5,,-0.06,
10.188000,-578.0000,5,,-0.06,
10.198000,-576.7500,5,,-0.06,
10.208000,-577.7500,5,,-0.06,
10.218000,-577.8750,5,,-0.06,
10.228000,-579.5000,5,,-0.06,
10.238000,-578.3750,5,,-0.06,
10.248000,-578.2500,5,,-0.06,
10.258000,-580.0000,5,,-0.06,
10.268000,-578.5000,5,,-0.06,
10.278000,-578.0000,5,,-0.06,
10.288000,-579.8750,5,,-0.06,
10.298000,-579.0000,5,,-0.06,
10.308000,-579.8750,5,,-0.06,
10.318000,-579.8750,5,,-0.06,
10.328000,-579.8750,5,,-0.06,
10.338000,-579.6250,5,,-0.06,
10.348000,-580.1250,5,,-0.06,
10.358000,-579.5000,5,,-0.06,
10.368000,-580.6250,5,,-0.06,
10.378000,-581.3750,5,,-0.06,
10.388000,-580.2500,5,,-0.06,
10.398000,-580.0000,5,,-0.06,
10.408000,-580.5000,5,,-0.06,
10.418000,-580.3750,5,,-0.06,
10.428000,-581.0000,5,,-0.06,
10.438000,-580.8750,5,,-0.06,
10.448000,-581.1250,5,,-0.06,
10.458000,-580.6250,5,,-0.06,
10.468000,-581.3750,5,,-0.06,
10.478000,-580.8750,5,,-0.06,
10.488000,-581.5000,5,,-0.06,
10.498000,-582.1250,5,,-0.06,
10.508000,-582.0000,5,,-0.06,
10.518000,-582.8750,5,,-0.06,
10.528000,-581.3750,5,,-0.06,
10.538000,-581.8750,5,,-0.06,
10.548000,-582.3750,5,,-0.06,
10.558000,-582.8750,5,,-0.06,
10.568000,-582.3750,5,,-0.06,
10.578000,-582.8750,5,,-0.06,
10.588000,-582.7500,5,,-0.06,
10.598000,-582.7500,5,,-0.06,
10.608000,-582.6250,5,,-0.06,
10.618000,-583.3750,5,,-0.06,
10.628000,-583.2500,5,,-0.06,
10.638000,-583.6250,5,,-0.06,
10.648000,-583.3750,5,,-0.06,
10.658000,-584.0000,5,,-0.06,
10.668000,-582.7500,5,,-0.06,
10.678000,-583.3750,5,,-0.06,
10.688000,-583.3750,5,,-0.06,
10.698000,-583.7500,5,,-0.06,
10.708000,-583.7500,5,,-0.06,
10.718000,-584.3750,5,,-0.06,
10.728000,-583.6250,5,,-0.06,
10.738000,-584.5000,5,,-0.06,
10.748000,-583.5000,5,,-0.06,
10.758000,-583.7500,5,,-0.06,
10.768000,-583.7500,5,,-0.06,
10.778000,-584.7500,5,,-0.06,
10.788000,-584.0000,5,,-0.06,
10.798000,-583.8750,5,,-0.06,
10.808000,-584.8750,5,,-0.06,
10.818000,-583.7500,5,,-0.06,
10.828000,-585.6250,5,,-0.06,
10.838000,-585.7500,5,,-0.06,
10.848000,-586.2500,5,,-0.06,
10.858000,-586.6250,5,,-0.06,
10.868000,-586.5000,5,,-0.06,
10.878000,-589.2500,5,,-0.06,
10.888000,-589.8750,5,,-0.06,
10.898000,-591.0000,5,,-0.06,
10.908000,-591.0000,5,,-0.06,
10.918000,-590.8750,5,,-0.06,
10.928000,-591.0000,5,,-0.06,
10.938000,-589.8750,5,,-0.06,
10.948000,-590.6250,5,,-0.06,
10.958000,-589.7500,5,,-0.06,
10.968000,-591.1250,5,,-0.06,
10.978000,-590.1250,5,,-0.06,
10.988000,-589.7500,5,,-0.06,
10.998000,-590.3750,5,,-0.06,
11.008000,-590.7500,5,,-0.06,
11.018000,-590.1250,5,,-0.06,
11.028000,-589.5000,5,,-0.06,
11.038000,-589.3750,5,,-0.06,
11.048000,-589.6250,5,,-0.06,
11.058000,-589.5000,5,,-0.06,
11.068000,-589.0000,5,,-0.06,
11.078000,-589.6250,5,,-0.06,
11.088000,-590.1250,5,,-0.06,
11.098000,-589.5000,5,,-0.06,
11.108000,-589.8750,5,,-0.06,
11.118000,-590.5000,5,,-0.06,
11.128000,-589.5000,5,,-0.06,
11.138000,-589.8750,5,,-0.06,
11.148000,-591.6250,5,,-0.06,
11.158000,-590.6250,5,,-0.06,
11.168000,-592.2500,5,,-0.06,
11.178000,-591.3750,5,,-0.06,
11.188000,-591.1250,5,,-0.06,
11.198000,-591.7500,5,,-0.06,
11.208000,-592.3750,5,,-0.06,
11.218000,-591.7500,5,,-0.06,
11.228000,-591.1250,5,,-0.06,
11.238000,-590.5000,5,,-0.06,
11.248000,-591.3750,5,,-0.06,
11.258000,-591.1250,5,,-0.06,
11.268000,-590.6250,5,,-0.06,
11.278000,-590.8750,5,,-0.06,
11.288000,-591.5000,5,,-0.06,
11.298000,-591.7500,5,,-0.06,
11.308000,-589.8750,5,,-0.06,
11.318000,-591.5000,5,,-0.06,
11.328000,-591.8750,5,,-0.06,
11.338000,-591.1250,5,,-0.06,
11.348000,-592.1250,5,,-0.06,
11.358000,-592.1250,5,,-0.06,
11.368000,-592.6250,5,,-0.06,
11.378000,-592.2500,5,,-0.06,
11.388000,-592.0000,5,,-0.06,
11.398000,-591.7500,5,,-0.06,
11.408000,-593.2500,5,,-0.06,
11.418000,-591.0000,5,,-0.06,
11.428000,-591.3750,5,,-0.06,
11.438000,-591.1250,5,,-0.06,
11.448000,-591.2500,5,,-0.06,
11.458000,-590.3750,5,,-0.06,
11.468000,-590.7500,5,,-0.06,
11.478000,-590.1250,5,,-0.06,
11.488000,-590.0000,5,,-0.06,
11.498000,-590.0000,5,,-0.06,
11.508000,-588.6250,5,,-0.06,
11.518000,-588.1250,5,,-0.06,
11.528000,-589.0000,5,,-0.06,
11.538000,-589.3750,5,,-0.06,
11.548000,-589.5000,5,,-0.06,
11.558000,-589.2500,5,,-0.06,
11.568000,-590.0000,5,,-0.06,
11.578000,-589.1250,5,,-0.06,
11.588000,-588.8750,5,,-0.06,
11.598000,-589.3750,5,,-0.06,
11.608000,-588.8750,5,,-0.06,
11.618000,-589.2500,5,,-0.06,
11.628000,-588.5000,5,,-0.06,
11.638000,-589.7500,5,,-0.06,
11.648000,-589.5000,5,,-0.06,
11.658000,-589.0000,5,,-0.06,
11.668000,-589.0000,5,,-0.06,
11.678000,-590.3750,5,,-0.06,
11.688000,-589.5000,5,,-0.06,
11.698000,-588.8750,5,,-0.06,
11.708000,-589.7500,5,,-0.06,
11.718000,-589.5000,5,,-0.06,
11.728000,-589.6250,5,,-0.06,
11.738000,-589.8750,5,,-0.06,
11.748000,-589.7500,5,,-0.06,
11.758000,-589.6250,5,,-0.06,
11.768000,-590.7500,5,,-0.06,
11.778000,-589.8750,5,,-0.06,
11.788000,-589.0000,5,,-0.06,
11.798000,-589.2500,5,,-0.06,
11.808000,-590.5000,5,,-0.06,
11.818000,-590.3750,5,,-0.06,
11.828000,-591.0000,5,,-0.06,
11.838000,-590.3750,5,,-0.06,
11.848000,-590.1250,5,,-0.06,
11.858000,-591.0000,5,,-0.06,
11.868000,-591.8750,5,,-0.06,
11.878000,-592.6250,5,,-0.06,
11.888000,-591.8750,5,,-0.06,
11.898000,-593.1250,5,,-0.06,
11.908000,-592.3750,5,,-0.06,
11.918000,-593.0000,5,,-0.06,
11.928000,-593.0000,5,,-0.06,
11.938000,-592.6250,7,,-23.42,
11.948000,-593.5000,7,,-23.42,
11.958000,-593.7500,7,,-23.42,
11.968000,-594.2500,7,,-23.42,
11.978000,-593.8750,7,,-23.42,
11.988000,-596.6250,7,,-23.42,
11.998000,-595.7500,7,,-23.42,
12.008000,-595.1250,7,,-23.42,
12.018000,-595.8750,7,,-23.42,
12.028000,-597.5000,7,,-23.42,
12.038000,-597.3750,7,,-23.42,
12.048000,-597.2500,7,,-23.42,
12.058000,-597.6250,7,,-23.42,
12.068000,-597.3750,7,,-23.42,
12.078000,-598.2500,7,,-23.42,
12.088000,-599.7500,7,,-23.42,
12.098000,-599.2500,7,,-23.42,
12.108000,-599.7500,7,,-23.42,
12.118000,-600.1250,7,,-23.42,
12.128000,-600.8750,7,,-23.42,
12.138000,-601.1250,7,,-23.42,
12.148000,-600.8750,7,,-23.42,
12.158000,-601.1250,7,,-23.42,
12.168000,-603.3750,7,,-23.42,
12.178000,-602.6250,7,,-23.42,
12.188000,-603.1250,7,,-23.42,
12.198000,-603.2500,7,,-23.42,
12.208000,-603.6250,7,,-23.42,
12.218000,-603.5000,7,,-23.42,
12.228000,-604.8750,7,,-23.42,
12.238000,-605.3750,7,,-23.42,
12.248000,-604.6250,7,,-23.42,
12.258000,-605.6250,7,,-23.42,
12.268000,-606.3750,7,,-23.42,
12.278000,-606.7500,7,,-23.42,
12.288000,-606.5000,7,,-23.42,
12.298000,-606.5000,7,,-23.42,
12.308000,-607.5000,7,,-23.42,
12.318000,-607.0000,7,,-23.42,
12.328000,-608.2500,7,,-23.42,
12.338000,-608.3750,7,,-23.42,
12.348000,-608.3750,7,,-23.42,
12.358000,-608.7500,7,,-23.42,
12.368000,-609.1250,7,,-23.42,
12.378000,-609.2500,7,,-23.42,
12.388000,-610.1250,7,,-23.42,
12.398000,-609.2500,7,,-23.42,
12.408000,-610.0000,7,,-23.42,
12.418000,-610.2500,7,,-23.42,
12.428000,-610.5000,7,,-23.42,
12.438000,-611.8750,7,,-23.42,
12.448000,-610.8750,7,,-23.42,
12.458000,-611.1250,7,,-23.42,
12.468000,-611.2500,7,,-23.42,
12.478000,-611.5000,7,,-23.42,
12.488000,-612.8750,7,,-23.42,
12.498000,-613.0000,7,,-23.42,
12.508000,-613.3750,7,,-23.42,
12.518000,-612.8750,7,,-23.42,
12.528000,-613.6250,7,,-23.42,
12.538000,-613.5000,7,,-23.42,
12.548000,-614.1250,7,,-23.42,
12.558000,-613.6250,7,,-23.42,
12.568000,-614.0000,7,,-23.42,
12.578000,-614.1250,7,,-23.42,
12.588000,-614.5000,7,,-23.42,
12.598000,-614.1250,7,,-23.42,
12.608000,-614.6250,7,,-23.42,
12.618000,-615.3750,7,,-23.42,
12.628000,-615.2500,7,,-23.42,
12.638000,-615.6250,7,,-23.42,
12.648000,-615.8750,7,,-23.42,
12.658000,-615.6250,7,,-23.42,
12.668000,-615.7500,7,,-23.42,
12.678000,-615.6250,7,,-23.42,
12.688000,-616.8750,7,,-23.42,
12.698000,-615.8750,7,,-23.42,
12.708000,-617.5000,7,,-23.42,
12.718000,-616.5000,7,,-23.42,
12.728000,-617.3750,7,,-23.42,
12.738000,-617.3750,7,,-23.42,
12.748000,-617.6250,7,,-23.42,
12.758000,-617.6250,7,,-23.42,
12.768000,-617.3750,7,,-23.42,
12.778000,-617.7500,7,,-23.42,
12.788000,-617.1250,7,,-23.42,
12.798000,-616.6250,7,,-23.42,
12.808000,-617.1250,7,,-23.42,
12.818000,-616.6250,7,,-23.42,
12.828000,-616.5000,7,,-23.42,
12.838000,-616.1250,7,,-23.42,
12.848000,-617.0000,7,,-23.42,
12.858000,-615.7500,7,,-23.42,
12.868000,-616.2500,7,,-23.42,
12.878000,-616.2500,7,,-23.42,
12.888000,-616.3750,7,,-23.42,
12.898000,-615.7500,7,,-23.42,
12.908000,-616.0000,7,,-23.42,
12.918000,-615.5000,7,,-23.42,
12.928000,-615.6250,7,,-23.42,
12.938000,-614.5000,7,,-23.42,
12.948000,-614.6250,7,,-23.42,
12.958000,-615.2500,7,,-23.42,
12.968000,-615.2500,7,,-23.42,
12.978000,-614.7500,7,,-23.42,
12.988000,-614.3750,7,,-23.42,
12.998000,-614.1250,7,,-23.42,
13.008000,-613.7500,7,,-23.42,
13.018000,-614.1250,7,,-23.42,
13.028000,-613.8750,7,,-23.42,
13.038000,-613.8750,7,,-23.42,
13.048000,-613.2500,7,,-23.42,
13.058000,-613.0000,7,,-23.42,
13.068000,-613.0000,7,,-23.42,
13.078000,-612.3750,7,,-23.42,
13.088000,-611.3750,7,,-23.42,
13.098000,-611.6250,7,,-23.42,
13.108000,-612.3750,7,,-23.42,
13.118000,-611.0000,7,,-23.42,
13.128000,-610.3750,7,,-23.42,
13.138000,-610.0000,7,,-23.42,
13.148000,-608.6250,7,,-23.42,
13.158000,-609.6250,7,,-23.42,
13.168000,-609.1250,7,,-23.42,
13.178000,-609.3750,7,,-23.42,
13.188000,-609.0000,7,,-23.42,
13.198000,-607.0000,7,,-23.42,
13.208000,-605.6250,7,,-23.42,
13.218000,-605.3750,7,,-23.42,
13.228000,-604.8750,7,,-23.42,
13.238000,-603.0000,7,,-23.42,
13.248000,-603.2500,7,,-23.42,
13.258000,-602.3750,7,,-23.42,
13.268000,-601.6250,7,,-23.42,
13.278000,-600.2500,7,,-23.42,
13.288000,-599.8750,7,,-23.42,
13.298000,-598.2500,7,,-23.42,
13.308000,-596.8750,7,,-23.42,
13.318000,-597.0000,7,,-23.42,
13.328000,-595.8750,7,,-23.42,
13.338000,-594.5000,7,,-23.42,
13.348000,-593.8750,7,,-23.42,
13.358000,-592.6250,7,,-23.42,
13.368000,-592.1250,7,,-23.42,
13.378000,-590.1250,7,,-23.42,
13.388000,-590.6250,7,,-23.42,
13.398000,-589.1250,7,,-23.42,
13.408000,-588.2500,7,,-23.42,
13.418000,-587.3750,7,,-23.42,
13.428000,-585.6250,7,,-23.42,
13.438000,-584.5000,7,,-23.42,
13.448000,-582.6250,7,,-23.42,
13.458000,-582.3750,7,,-23.42,
13.468000,-580.6250,7,,-23.42,
13.478000,-581.0000,7,,-23.42,
13.488000,-579.5000,7,,-23.42,
13.498000,-577.7500,7,,-23.42,
13.508000,-576.3750,7,,-23.42,
13.518000,-576.2500,7,,-23.42,
13.528000,-573.3750,7,,-23.42,
13.538000,-573.1250,7,,-23.42,
13.548000,-571.6250,7,,-23.42,
13.558000,-571.3750,7,,-23.42,
13.568000,-569.5000,7,,-23.42,
13.578000,-569.1250,7,,-23.42,
13.588000,-568.6250,7,,-23.42,
13.598000,-567.6250,7,,-23.42,
13.608000,-566.2500,7,,-23.42,
13.618000,-566.3750,7,,-23.42,
13.628000,-564.8750,7,,-23.42,
13.638000,-563.7500,7,,-23.42,
13.648000,-562.5000,7,,-23.42,
13.658000,-561.6250,7,,-23.42,
13.668000,-560.5000,7,,-23.42,
13.678000,-559.8750,7,,-23.42,
13.688000,-558.2500,7,,-23.42,
13.698000,-558.2500,7,,-23.42,
13.708000,-555.6250,7,,-23.42,
13.718000,-554.6250,7,,-23.42,
13.728000,-553.5000,7,,-23.42,
13.738000,-552.8750,7,,-23.42,
13.748000,-552.5000,7,,-23.42,
13.758000,-551.0000,7,,-23.42,
13.768000,-550.3750,7,,-23.42,
13.778000,-549.6250,7,,-23.42,
13.788000,-549.1250,7,,-23.42,
13.798000,-548.3750,7,,-23.42,
13.808000,-547.6250,7,,-23.42,
13.818000,-545.2500,7,,-23.42,
13.828000,-542.8750,7,,-23.42,
13.838000,-541.6250,7,,-23.42,
13.848000,-539.0000,7,,-23.42,
13.858000,-539.3750,7,,-23.42,
13.868000,-538.0000,7,,-23.42,
13.878000,-536.8750,7,,-23.42,
13.888000,-536.8750,7,,-23.42,
13.898000,-536.0000,7,,-23.42,
13.908000,-535.2500,7,,-23.42,
13.918000,-534.1250,7,,-23.42,
13.928000,-534.3750,7,,-23.42,
13.938000,-534.6250,7,,-23.42,
13.948000,-533.3750,7,,-23.42,
13.958000,-534.2500,7,,-23.42,
13.968000,-534.0000,7,,-23.42,
13.978000,-532.6250,7,,-23.42,
13.988000,-533.3750,7,,-23.42,
13.998000,-531.6250,7,,-23.42,
14.008000,-529.0000,7,,-23.42,
14.018000,-526.8750,7,,-23.42,
14.028000,-525.6250,7,,-23.42,
14.038000,-521.8750,7,,-23.42,
14.048000,-520.7500,7,,-23.42,
14.058000,-518.6250,7,,-23.42,
14.068000,-517.6250,7,,-23.42,
14.078000,-516.6250,7,,-23.42,
14.088000,-515.7500,7,,-23.42,
14.098000,-513.7500,7,,-23.42,
14.108000,-513.1250,7,,-23.42,
14.118000,-511.6250,7,,-23.42,
14.128000,-511.0000,7,,-23.42,
14.138000,-510.3750,7,,-23.42,
14.148000,-510.0000,7,,-23.42,
14.158000,-509.1250,7,,-23.42,
14.168000,-508.3750,7,,-23.42,
14.178000,-507.5000,7,,-23.42,
14.188000,-507.2500,7,,-23.42,
14.198000,-506.0000,7,,-23.42,
14.208000,-505.7500,7,,-23.42,
14.218000,-506.2500,7,,-23.42,
14.228000,-505.6250,7,,-23.42,
14.238000,-505.5000,7,,-23.42,
14.248000,-505.0000,7,,-23.42,
14.258000,-504.7500,7,,-23.42,
14.268000,-504.3750,7,,-23.42,
14.278000,-502.8750,7,,-23.42,
14.288000,-500.8750,7,,-23.42,
14.298000,-500.1250,7,,-23.42,
14.308000,-497.3750,7,,-23.42,
14.318000,-495.7500,7,,-23.42,
14.328000,-497.2500,7,,-23.42,
14.338000,-496.6250,7,,-23.42,
14.348000,-496.3750,7,,-23.42,
14.358000,-494.6250,7,,-23.42,
14.368000,-491.2500,7,,-23.42,
14.378000,-487.0000,7,,-23.42,
14.388000,-486.6250,7,,-23.42,
14.398000,-485.7500,7,,-23.42,
14.408000,-485.3750,7,,-23.42,
14.418000,-484.3750,7,,-23.42,
14.428000,-483.5000,7,,-23.42,
14.438000,-483.7500,7,,-23.42,
14.448000,-482.3750,7,,-23.42,
14.458000,-481.7500,7,,-23.42,
14.468000,-481.1250,7,,-23.42,
14.478000,-480.1250,7,,-23.42,
14.488000,-480.7500,7,,-23.42,
14.498000,-479.2500,7,,-23.42,
14.508000,-478.2500,7,,-23.42,
14.518000,-477.6250,7,,-23.42,
14.528000,-477.5000,7,,-23.42,
14.538000,-477.2500,7,,-23.42,
14.548000,-477.2500,7,,-23.42,
14.558000,-476.5000,7,,-23.42,
14.568000,-477.5000,7,,-23.42,
14.578000,-475.5000,7,,-23.42,
14.588000,-475.2500,7,,-23.42,
14.598000,-475.6250,7,,-23.42,
14.608000,-476.1250,7,,-23.42,
14.618000,-407.5000,7,,-23.42,
14.628000,-464.5000,7,,-23.42,
14.638000,-455.5000,7,,-23.42,
14.648000,-445.6250,7,,-23.42,
14.658000,-422.5000,7,,-23.42,
14.668000,-418.0000,7,,-23.42,
14.678000,-414.6250,7,,-23.42,
14.688000,-412.2500,7,,-23.42,
14.698000,-410.5000,7,,-23.42,
14.708000,-408.1250,7,,-23.42,
14.718000,-406.8750,7,,-23.42,
14.728000,-405.5000,7,,-23.42,
14.738000,-403.5000,7,,-23.42,
14.748000,-403.2500,7,,-23.42,
14.758000,-402.6250,7,,-23.42,
14.768000,-403.2500,7,,-23.42,
14.778000,-402.6250,7,,-23.42,
14.788000,-404.0000,7,,-23.42,
14.798000,-405.0000,7,,-23.42,
14.808000,-403.8750,7,,-23.42,
14.818000,-406.3750,7,,-23.42,
14.828000,-405.7500,7,,-23.42,
14.838000,-406.6250,7,,-23.42,
14.848000,-408.3750,7,,-23.42,
14.858000,-408.6250,7,,-23.42,
14.868000,-408.7500,7,,-23.42,
14.878000,-409.7500,7,,-23.42,
14.888000,-410.3750,7,,-23.42,
14.898000,-410.7500,7,,-23.42,
14.908000,-410.8750,7,,-23.42,
14.918000,-411.8750,7,,-23.42,
14.928000,-412.3750,7,,-23.42,
14.938000,-412.1250,7,,-23.42,
14.948000,-411.8750,7,,-23.42,
14.958000,-411.5000,7,,-23.42,
14.968000,-411.1250,7,,-23.42,
14.978000,-411.3750,7,,-23.42,
14.988000,-411.2500,7,,-23.42,
14.998000,-411.1250,7,,-23.42,
15.008000,-411.1250,7,,-23.42,
15.018000,-411.1250,7,,-23.42,
15.028000,-411.5000,7,,-23.42,
15.038000,-411.5000,7,,-23.42,
15.048000,-411.3750,7,,-23.42,
15.058000,-411.3750,7,,-23.42,
15.068000,-411.7500,7,,-23.42,
15.078000,-411.8750,7,,-23.42,
15.088000,-412.2500,7,,-23.42,
15.098000,-412.0000,7,,-23.42,
15.108000,-412.0000,7,,-23.42,
15.118000,-412.0000,7,,-23.42,
15.128000,-412.3750,7,,-23.42,
15.138000,-412.1250,9,,-19.69,23.03
15.148000,-412.2500,9,,-19.69,23.03
15.158000,-412.7500,9,,-19.69,23.03
15.168000,-413.0000,9,,-19.69,23.03
15.178000,-412.7500,9,,-19.69,23.03
15.188000,-412.6250,9,,-19.69,23.03
15.198000,-412.3750,9,,-19.69,23.03
15.208000,-413.0000,9,,-19.69,23.03
15.218000,-413.6250,9,,-19.69,23.03
15.228000,-413.5000,9,,-19.69,23.03
15.238000,-413.0000,9,,-19.69,23.03
15.248000,-413.2500,9,,-19.69,23.03
15.258000,-413.1250,9,,-19.69,23.03
15.268000,-413.5000,9,,-19.69,23.03
15.278000,-413.6250,9,,-19.69,23.03
15.288000,-414.1250,9,,-19.69,23.03
15.298000,-414.2500,9,,-19.69,23.03
15.308000,-414.1250,9,,-19.69,23.03
15.318000,-414.3750,9,,-19.69,23.03
15.328000,-414.6250,9,,-19.69,23.03
15.338000,-414.8750,9,,-19.69,23.03
15.348000,-414.8750,9,,-19.69,23.03
15.358000,-415.2500,9,,-19.69,23.03
15.368000,-415.3750,9,,-19.69,23.03
15.378000,-416.3750,9,,-19.69,23.03
15.388000,-416.2500,9,,-19.69,23.03
15.398000,-416.3750,9,,-19.69,23.03
15.408000,-416.7500,9,,-19.69,23.03
15.418000,-417.0000,9,,-19.69,23.03
15.428000,-416.7500,9,,-19.69,23.03
15.438000,-417.5000,9,,-19.69,23.03
15.448000,-417.6250,9,,-19.69,23.03
15.458000,-417.8750,9,,-19.69,23.03
15.468000,-417.5000,9,,-19.69,23.03
15.478000,-418.0000,9,,-19.69,23.03
15.488000,-418.2500,9,,-19.69,23.03
15.498000,-418.6250,9,,-19.69,23.03
15.508000,-418.5000,9,,-19.69,23.03
15.518000,-419.0000,9,,-19.69,23.03
15.528000,-419.3750,9,,-19.69,23.03
15.538000,-419.7500,9,,-19.69,23.03
15.548000,-419.8750,9,,-19.69,23.03
15.558000,-420.5000,9,,-19.69,23.03
15.568000,-420.3750,9,,-19.69,23.03
15.578000,-420.6250,9,,-19.69,23.03
15.588000,-420.6250,9,,-19.69,23.03
15.598000,-420.8750,9,,-19.69,23.03
15.608000,-421.5000,9,,-19.69,23.03
15.618000,-421.5000,9,,-19.69,23.03
15.628000,-422.2500,9,,-19.69,23.03
15.638000,-422.2500,9,,-19.69,23.03
15.648000,-422.2500,9,,-19.69,23.03
15.658000,-422.5000,9,,-19.69,23.03
15.668000,-423.5000,9,,-19.69,23.03
15.678000,-423.3750,9,,-19.69,23.03
15.688000,-423.7500,9,,-19.69,23.03
15.698000,-423.7500,9,,-19.69,23.03
15.708000,-424.0000,9,,-19.69,23.03
15.718000,-423.8750,9,,-19.69,23.03
15.728000,-424.6250,9,,-19.69,23.03
15.738000,-425.0000,9,,-19.69,23.03
15.748000,-425.5000,9,,-19.69,23.03
15.758000,-425.3750,9,,-19.69,23.03
15.768000,-425.6250,9,,-19.69,23.03
15.778000,-426.3750,9,,-19.69,23.03
15.788000,-426.6250,9,,-19.69,23.03
15.798000,-426.6250,9,,-19.69,23.03
15.808000,-427.1250,9,,-19.69,23.03
15.818000,-427.2500,9,,-19.69,23.03
15.828000,-427.5000,9,,-19.69,23.03
15.838000,-428.5000,9,,-19.69,23.03
15.848000,-428.5000,9,,-19.69,23.03
15.858000,-429.0000,9,,-19.69,23.03
15.868000,-429.7500,9,,-19.69,23.03
15.878000,-430.2500,9,,-19.69,23.03
15.888000,-430.6250,9,,-19.69,23.03
15.898000,-430.6250,9,,-19.69,23.03
15.908000,-430.8750,9,,-19.69,23.03
15.918000,-432.5000,9,,-19.69,23.03
15.928000,-433.1250,9,,-19.69,23.03
15.938000,-432.8750,9,,-19.69,23.03
15.948000,-432.6250,9,,-19.69,23.03
15.958000,-432.5000,9,,-19.69,23.03
15.968000,-433.6250,9,,-19.69,23.03
15.978000,-433.8750,9,,-19.69,23.03
15.988000,-433.7500,9,,-19.69,23.03
15.998000,-435.5000,9,,-19.69,23.03
16.008000,-435.1250,9,,-19.69,23.03
16.018000,-435.2500,9,,-19.69,23.03
16.028000,-436.5000,9,,-19.69,23.03
16.038000,-437.0000,9,,-19.69,23.03
16.048000,-436.6250,9,,-19.69,23.03
16.058000,-437.1250,9,,-19.69,23.03
16.068000,-437.6250,9,,-19.69,23.03
16.078000,-437.5000,9,,-19.69,23.03
16.088000,-438.5000,9,,-19.69,23.03
16.098000,-438.8750,9,,-19.69,23.03
16.108000,-439.1250,9,,-19.69,23.03
16.118000,-439.2500,9,,-19.69,23.03
16.128000,-440.3750,9,,-19.69,23.03
16.138000,-440.5000,9,,-19.69,23.03
16.148000,-440.7500,9,,-19.69,23.03
16.158000,-441.7500,9,,-19.69,23.03
16.168000,-441.6250,9,,-19.69,23.03
16.178000,-443.1250,9,,-19.69,23.03
16.188000,-442.5000,9,,-19.69,23.03
16.198000,-443.3750,9,,-19.69,23.03
16.208000,-443.6250,9,,-19.69,23.03
16.218000,-444.5000,9,,-19.69,23.03
16.228000,-444.3750,9,,-19.69,23.03
16.238000,-444.3750,9,,-19.69,23.03
16.248000,-445.2500,9,,-19.69,23.03
16.258000,-445.5000,9,,-19.69,23.03
16.268000,-445.5000,9,,-19.69,23.03
16.278000,-447.0000,9,,-19.69,23.03
16.288000,-447.2500,9,,-19.69,23.03
16.298000,-447.0000,9,,-19.69,23.03
16.308000,-447.8750,9,,-19.69,23.03
16.318000,-448.5000,9,,-19.69,23.03
16.328000,-448.5000,9,,-19.69,23.03
16.338000,-449.1250,9,,-19.69,23.03
16.348000,-449.7500,9,,-19.69,23.03
16.358000,-449.7500,9,,-19.69,23.03
16.368000,-450.2500,9,,-19.69,23.03
16.378000,-451.2500,9,,-19.69,23.03
16.388000,-451.3750,9,,-19.69,23.03
16.398000,-451.7500,9,,-19.69,23.03
16.408000,-451.7500,9,,-19.69,23.03
16.418000,-452.5000,9,,-19.69,23.03
16.428000,-452.8750,9,,-19.69,23.03
16.438000,-453.6250,9,,-19.69,23.03
16.448000,-454.2500,9,,-19.69,23.03
16.458000,-454.3750,9,,-19.69,23.03
16.468000,-455.0000,9,,-19.69,23.03
16.478000,-455.1250,9,,-19.69,23.03
16.488000,-455.3750,9,,-19.69,23.03
16.498000,-456.1250,9,,-19.69,23.03
16.508000,-456.2500,9,,-19.69,23.03
16.518000,-456.5000,9,,-19.69,23.03
16.528000,-457.0000,9,,-19.69,23.03
16.538000,-458.0000,9,,-19.69,23.03
16.548000,-458.8750,9,,-19.69,23.03
16.558000,-458.7500,9,,-19.69,23.03
16.568000,-458.7500,9,,-19.69,23.03
16.578000,-458.8750,9,,-19.69,23.03
16.588000,-460.6250,9,,-19.69,23.03
16.598000,-460.6250,9,,-19.69,23.03
16.608000,-460.2500,9,,-19.69,23.03
16.618000,-463.1250,9,,-19.69,23.03
16.628000,-462.8750,9,,-19.69,23.03
16.638000,-461.2500,9,,-19.69,23.03
16.648000,-463.5000,9,,-19.69,23.03
16.658000,-462.0000,9,,-19.69,23.03
16.668000,-463.3750,9,,-19.69,23.03
16.678000,-464.5000,9,,-19.69,23.03
16.688000,-463.5000,9,,-19.69,23.03
16.698000,-464.6250,9,,-19.69,23.03
16.708000,-464.8750,9,,-19.69,23.03
16.718000,-466.6250,9,,-19.69,23.03
16.728000,-465.6250,9,,-19.69,23.03
16.738000,-466.5000,9,,-19.69,23.03
16.748000,-466.8750,9,,-19.69,23.03
16.758000,-467.0000,9,,-19.69,23.03
16.768000,-468.0000,9,,-19.69,23.03
16.778000,-466.1250,9,,-19.69,23.03
16.788000,-468.2500,9,,-19.69,23.03
16.798000,-469.7500,9,,-19.69,23.03
16.808000,-469.3750,9,,-19.69,23.03
16.818000,-471.1250,9,,-19.69,23.03
16.828000,-471.5000,9,,-19.69,23.03
16.838000,-469.8750,9,,-19.69,23.03
16.848000,-468.2500,9,,-19.69,23.03
16.858000,-470.0000,9,,-19.69,23.03
16.868000,-469.1250,9,,-19.69,23.03
16.878000,-471.6250,9,,-19.69,23.03
16.888000,-471.6250,9,,-19.69,23.03
16.898000,-472.6250,9,,-19.69,23.03
16.908000,-474.7500,9,,-19.69,23.03
16.918000,-471.5000,9,,-19.69,23.03
16.928000,-474.0000,9,,-19.69,23.03
16.938000,-471.5000,9,,-19.69,23.03
16.948000,-474.7500,9,,-19.69,23.03
16.958000,-474.8750,9,,-19.69,23.03
16.968000,-475.3750,9,,-19.69,23.03
16.978000,-470.0000,9,,-19.69,23.03
16.988000,-478.6250,9,,-19.69,23.03
16.998000,-476.2500,9,,-19.69,23.03
17.008000,-476.5000,9,,-19.69,23.03
17.018000,-473.3750,9,,-19.69,23.03
17.028000,-480.3750,9,,-19.69,23.03
17.038000,-481.8750,9,,-19.69,23.03
17.048000,-466.8750,9,,-19.69,23.03
17.058000,-474.3750,9,,-19.69,23.03
17.068000,-423.0000,9,,-19.69,23.03
17.078000,-492.1250,9,,-19.69,23.03
17.088000,-495.0000,9,,-19.69,23.03
17.098000,-496.3750,9,,-19.69,23.03
17.108000,-491.2500,9,,-19.69,23.03
17.118000,-493.3750,9,,-19.69,23.03
17.128000,-499.2500,9,,-19.69,23.03
17.138000,-502.7500,9,,-19.69,23.03
17.148000,-500.3750,9,,-19.69,23.03
17.158000,-499.3750,9,,-19.69,23.03
17.168000,-499.6250,9,,-19.69,23.03
17.178000,-499.2500,9,,-19.69,23.03
17.188000,-501.8750,9,,-19.69,23.03
17.198000,-501.2500,9,,-19.69,23.03
17.208000,-501.3750,9,,-19.69,23.03
17.218000,-504.6250,9,,-19.69,23.03
17.228000,-504.3750,9,,-19.69,23.03
17.238000,-505.5000,9,,-19.69,23.03
17.248000,-508.6250,9,,-19.69,23.03
17.258000,-509.7500,9,,-19.69,23.03
17.268000,-510.5000,9,,-19.69,23.03
17.278000,-515.1250,9,,-19.69,23.03
17.288000,-516.7500,9,,-19.69,23.03
17.298000,-516.3750,9,,-19.69,23.03
17.308000,-517.1250,9,,-19.69,23.03
17.318000,-518.0000,9,,-19.69,23.03
17.328000,-518.5000,9,,-19.69,23.03
17.338000,-520.1250,9,,-19.69,23.03
17.348000,-519.5000,9,,-19.69,23.03
17.358000,-520.3750,9,,-19.69,23.03
17.368000,-521.0000,9,,-19.69,23.03
17.378000,-522.0000,9,,-19.69,23.03
17.388000,-520.5000,9,,-19.69,23.03
17.398000,-521.7500,9,,-19.69,23.03
17.408000,-522.1250,9,,-19.69,23.03
17.418000,-523.3750,9,,-19.69,23.03
17.428000,-522.8750,9,,-19.69,23.03
17.438000,-523.1250,9,,-19.69,23.03
17.448000,-524.3750,9,,-19.69,23.03
17.458000,-525.8750,9,,-19.69,23.03
17.468000,-527.0000,9,,-19.69,23.03
17.478000,-527.7500,9,,-19.69,23.03
17.488000,-527.8750,9,,-19.69,23.03
17.498000,-522.5000,9,,-19.69,23.03
17.508000,-504.3750,9,,-19.69,23.03
17.518000,-488.0000,9,,-19.69,23.03
17.528000,-473.5000,9,,-19.69,23.03
17.538000,-467.2500,9,,-19.69,23.03
17.548000,-463.3750,9,,-19.69,23.03
17.558000,-459.6250,9,,-19.69,23.03
17.568000,-455.1250,9,,-19.69,23.03
17.578000,-453.3750,9,,-19.69,23.03
17.588000,-451.3750,9,,-19.69,23.03
17.598000,-449.0000,9,,-19.69,23.03
17.608000,-442.5000,9,,-19.69,23.03
17.618000,-442.3750,9,,-19.69,23.03
17.628000,-443.5000,9,,-19.69,23.03
17.638000,-447.1250,9,,-19.69,23.03
17.648000,-449.0000,9,,-19.69,23.03
17.658000,-449.6250,9,,-19.69,23.03
17.668000,-449.8750,9,,-19.69,23.03
17.678000,-450.5000,9,,-19.69,23.03
17.688000,-451.6250,9,,-19.69,23.03
17.698000,-451.5000,9,,-19.69,23.03
17.708000,-452.5000,9,,-19.69,23.03
17.718000,-453.5000,9,,-19.69,23.03
17.728000,-454.2500,9,,-19.69,23.03
17.738000,-456.0000,9,,-19.69,23.03
17.748000,-456.0000,9,,-19.69,23.03
17.758000,-457.0000,9,,-19.69,23.03
17.768000,-459.3750,9,,-19.69,23.03
17.778000,-459.8750,9,,-19.69,23.03
17.788000,-461.6250,9,,-19.69,23.03
17.798000,-465.8750,9,,-19.69,23.03
17.808000,-467.2500,9,,-19.69,23.03
17.818000,-467.7500,9,,-19.69,23.03
17.828000,-468.0000,9,,-19.69,23.03
17.838000,-468.8750,9,,-19.69,23.03
17.848000,-468.8750,9,,-19.69,23.03
17.858000,-469.6250,9,,-19.69,23.03
17.868000,-468.8750,9,,-19.69,23.03
17.878000,-471.2500,9,,-19.69,23.03
17.888000,-474.6250,9,,-19.69,23.03
17.898000,-474.2500,9,,-19.69,23.03
17.908000,-475.2500,9,,-19.69,23.03
17.918000,-476.3750,9,,-19.69,23.03
17.928000,-477.0000,9,,-19.69,23.03
17.938000,-477.6250,9,,-19.69,23.03
17.948000,-478.0000,9,,-19.69,23.03
17.958000,-480.5000,9,,-19.69,23.03
17.968000,-485.5000,9,,-19.69,23.03
17.978000,-484.6250,9,,-19.69,23.03
17.988000,-487.1250,9,,-19.69,23.03
17.998000,-487.3750,9,,-19.69,23.03
18.008000,-487.5000,9,,-19.69,23.03
18.018000,-489.2500,9,,-19.69,23.03
18.028000,-487.1250,9,,-19.69,23.03
18.038000,-490.2500,9,,-19.69,23.03
18.048000,-493.5000,9,,-19.69,23.03
18.058000,-491.5000,9,,-19.69,23.03
18.068000,-489.3750,9,,-19.69,23.03
18.078000,-492.2500,9,,-19.69,23.03
18.088000,-492.7500,9,,-19.69,23.03
18.098000,-487.0000,9,,-19.69,23.03
18.108000,-489.2500,9,,-19.69,23.03
18.118000,-482.5000,9,,-19.69,23.03
18.128000,-481.0000,9,,-19.69,23.03
18.138000,-470.0000,9,,-19.69,23.03
18.148000,-496.3750,9,,-19.69,23.03
18.158000,-479.1250,9,,-19.69,23.03
18.168000,-484.8750,9,,-19.69,23.03
18.178000,-474.2500,9,,-19.69,23.03
18.188000,-494.7500,9,,-19.69,23.03
18.198000,-452.0000,9,,-19.69,23.03
18.208000,-476.2500,9,,-19.69,23.03
18.218000,-513.2500,9,,-19.69,23.03
18.228000,-458.1250,9,,-19.69,23.03
18.238000,-498.5000,9,,-19.69,23.03
18.248000,-443.0000,9,,-19.69,23.03
18.258000,-488.2500,9,,-19.69,23.03
18.268000,-446.3750,9,,-19.69,23.03
18.278000,-459.0000,9,,-19.69,23.03
18.288000,-489.5000,9,,-19.69,23.03
18.298000,-468.2500,9,,-19.69,23.03
18.308000,-548.3750,9,,-19.69,23.03
18.318000,-455.8750,9,,-19.69,23.03
18.328000,-495.8750,9,,-19.69,23.03
18.338000,-503.5000,9,,-19.69,23.03
18.348000,-457.2500,9,,-19.69,23.03
18.358000,-505.0000,9,,-19.69,23.03
18.368000,-513.7500,9,,-19.69,23.03
18.378000,-498.8750,9,,-19.69,23.03
18.388000,-502.0000,9,,-19.69,23.03
18.398000,-498.0000,9,,-19.69,23.03
18.408000,-508.6250,9,,-19.69,23.03
18.418000,-511.3750,9,,-19.69,23.03
18.428000,-515.3750,9,,-19.69,23.03
18.438000,-511.6250,9,,-19.69,23.03
18.448000,-516.6250,9,,-19.69,23.03
18.458000,-506.5000,9,,-19.69,23.03
18.468000,-505.3750,11,51.90,-16.49,21.84
18.478000,-503.7500,11,51.90,-16.49,21.84
18.488000,-508.3750,11,51.90,-16.49,21.84
18.498000,-514.8750,11,51.90,-16.49,21.84
18.508000,-517.7500,11,51.90,-16.49,21.84
18.518000,-513.7500,11,51.90,-16.49,21.84
18.528000,-515.6250,11,51.90,-16.49,21.84
18.538000,-512.7500,11,51.90,-16.49,21.84
18.548000,-514.8750,11,51.90,-16.49,21.84
18.558000,-511.6250,11,51.90,-16.49,21.84
18.568000,-510.8750,11,51.90,-16.49,21.84
18.578000,-512.6250,11,51.90,-16.49,21.84
18.588000,-511.1250,11,51.90,-16.49,21.84
18.598000,-515.8750,11,51.90,-16.49,21.84
18.608000,-516.1250,11,51.90,-16.49,21.84
18.618000,-512.5000,11,51.90,-16.49,21.84
18.628000,-513.2500,11,51.90,-16.49,21.84
18.638000,-509.6250,11,51.90,-16.49,21.84
18.648000,-506.6250,11,51.90,-16.49,21.84
18.658000,-505.3750,11,51.90,-16.49,21.84
18.668000,-522.8750,11,51.90,-16.49,21.84
18.678000,-524.5000,11,51.90,-16.49,21.84
18.688000,-504.6250,11,51.90,-16.49,21.84
18.698000,-522.8750,11,51.90,-16.49,21.84
18.708000,-514.7500,11,51.90,-16.49,21.84
18.718000,-520.1250,11,51.90,-16.49,21.84
18.728000,-517.2500,11,51.90,-16.49,21.84
18.738000,-508.0000,11,51.90,-16.49,21.84
18.748000,-507.6250,11,51.90,-16.49,21.84
18.758000,-514.2500,11,51.90,-16.49,21.84
18.768000,-515.0000,11,51.90,-16.49,21.84
18.778000,-512.1250,11,51.90,-16.49,21.84
18.788000,-506.6250,11,51.90,-16.49,21.84
18.798000,-509.0000,11,51.90,-16.49,21.84
18.808000,-508.3750,11,51.90,-16.49,21.84
18.818000,-516.5000,11,51.90,-16.49,21.84
18.828000,-509.8750,11,51.90,-16.49,21.84
18.838000,-503.3750,11,51.90,-16.49,21.84
18.848000,-512.0000,11,51.90,-16.49,21.84
18.858000,-507.8750,11,51.90,-16.49,21.84
18.868000,-511.3750,11,51.90,-16.49,21.84
18.878000,-512.7500,11,51.90,-16.49,21.84
18.888000,-506.3750,11,51.90,-16.49,21.84
18.898000,-512.2500,11,51.90,-16.49,21.84
18.908000,-514.6250,11,51.90,-16.49,21.84
18.918000,-506.5000,11,51.90,-16.49,21.84
18.928000,-501.6250,11,51.90,-16.49,21.84
18.938000,-501.5000,11,51.90,-16.49,21.84
18.948000,-507.7500,11,51.90,-16.49,21.84
18.958000,-506.0000,11,51.90,-16.49,21.84
18.968000,-507.6250,11,51.90,-16.49,21.84
18.978000,-508.3750,11,51.90,-16.49,21.84
18.988000,-509.6250,11,51.90,-16.49,21.84
18.998000,-510.3750,11,51.90,-16.49,21.84
19.008000,-506.7500,11,51.90,-16.49,21.84
19.018000,-513.3750,11,51.90,-16.49,21.84
19.028000,-514.7500,11,51.90,-16.49,21.84
19.038000,-512.2500,11,51.90,-16.49,21.84
19.048000,-515.3750,11,51.90,-16.49,21.84
19.058000,-511.0000,11,51.90,-16.49,21.84
19.068000,-512.8750,11,51.90,-16.49,21.84
19.078000,-510.8750,11,51.90,-16.49,21.84
19.088000,-509.7500,11,51.90,-16.49,21.84
19.098000,-507.6250,11,51.90,-16.49,21.84
19.108000,-510.2500,11,51.90,-16.49,21.84
19.118000,-509.1250,11,51.90,-16.49,21.84
19.128000,-511.8750,11,51.90,-16.49,21.84
19.138000,-506.7500,11,51.90,-16.49,21.84
19.148000,-514.6250,11,51.90,-16.49,21.84
19.158000,-510.5000,11,51.90,-16.49,21.84
19.168000,-510.7500,11,51.90,-16.49,21.84
19.178000,-508.8750,11,51.90,-16.49,21.84
19.188000,-510.7500,11,51.90,-16.49,21.84
19.198000,-500.8750,11,51.90,-16.49,21.84
19.208000,-513.6250,11,51.90,-16.49,21.84
19.218000,-511.7500,11,51.90,-16.49,21.84
19.228000,-507.8750,11,51.90,-16.49,21.84
19.238000,-510.1250,11,51.90,-16.49,21.84
19.248000,-506.0000,11,51.90,-16.49,21.84
19.258000,-507.5000,11,51.90,-16.49,21.84
19.268000,-508.8750,11,51.90,-16.49,21.84
19.278000,-507.1250,11,51.90,-16.49,21.84
19.288000,-506.8750,11,51.90,-16.49,21.84
19.298000,-507.6250,11,51.90,-16.49,21.84
19.308000,-508.2500,11,51.90,-16.49,21.84
19.318000,-511.7500,11,51.90,-16.49,21.84
19.328000,-509.7500,11,51.90,-16.49,21.84
19.338000,-510.6250,11,51.90,-16.49,21.84
19.348000,-511.8750,11,51.90,-16.49,21.84
19.358000,-505.7500,11,51.90,-16.49,21.84
19.368000,-513.0000,11,51.90,-16.49,21.84
19.378000,-514.3750,11,51.90,-16.49,21.84
19.388000,-509.2500,11,51.90,-16.49,21.84
19.398000,-506.6250,11,51.90,-16.49,21.84
19.408000,-507.2500,11,51.90,-16.49,21.84
19.418000,-512.0000,11,51.90,-16.49,21.84
19.428000,-514.3750,11,51.90,-16.49,21.84
19.438000,-511.0000,11,51.90,-16.49,21.84
19.448000,-512.8750,11,51.90,-16.49,21.84
19.458000,-511.7500,11,51.90,-16.49,21.84
19.468000,-510.5000,11,51.90,-16.49,21.84
19.478000,-511.5000,11,51.90,-16.49,21.84
19.488000,-509.8750,11,51.90,-16.49,21.84
19.498000,-510.8750,11,51.90,-16.49,21.84
19.508000,-509.3750,11,51.90,-16.49,21.84
19.518000,-511.3750,11,51.90,-16.49,21.84
19.528000,-509.7500,11,51.90,-16.49,21.84
19.538000,-511.6250,11,51.90,-16.49,21.84
19.548000,-508.1250,11,51.90,-16.49,21.84
19.558000,-512.6250,11,51.90,-16.49,21.84
19.568000,-511.1250,11,51.90,-16.49,21.84
19.578000,-510.7500,11,51.90,-16.49,21.84
19.588000,-512.0000,11,51.90,-16.49,21.84
19.598000,-513.3750,11,51.90,-16.49,21.84
19.608000,-509.1250,11,51.90,-16.49,21.84
19.618000,-513.0000,11,51.90,-16.49,21.84
19.628000,-511.0000,11,51.90,-16.49,21.84
19.638000,-513.5000,11,51.90,-16.49,21.84
19.648000,-512.7500,11,51.90,-16.49,21.84
19.658000,-512.2500,11,51.90,-16.49,21.84
19.668000,-511.2500,11,51.90,-16.49,21.84
19.678000,-511.6250,11,51.90,-16.49,21.84
19.688000,-512.1250,11,51.90,-16.49,21.84
19.698000,-512.7500,11,51.90,-16.49,21.84
19.708000,-514.0000,11,51.90,-16.49,21.84
19.718000,-513.1250,11,51.90,-16.49,21.84
19.728000,-510.3750,11,51.90,-16.49,21.84
19.738000,-512.5000,11,51.90,-16.49,21.84
19.748000,-512.0000,11,51.90,-16.49,21.84
19.758000,-511.5000,11,51.90,-16.49,21.84
19.768000,-512.7500,11,51.90,-16.49,21.84
19.778000,-512.5000,11,51.90,-16.49,21.84
19.788000,-513.6250,11,51.90,-16.49,21.84
19.798000,-511.8750,11,51.90,-16.49,21.84
19.808000,-513.0000,11,51.90,-16.49,21.84
19.818000,-514.0000,11,51.90,-16.49,21.84
19.828000,-512.6250,11,51.90,-16.49,21.84
19.838000,-510.8750,11,51.90,-16.49,21.84
19.848000,-513.5000,11,51.90,-16.49,21.84
19.858000,-513.1250,11,51.90,-16.49,21.84
19.868000,-511.0000,11,51.90,-16.49,21.84
19.878000,-511.6250,11,51.90,-16.49,21.84
19.888000,-512.6250,11,51.90,-16.49,21.84
19.898000,-512.5000,11,51.90,-16.49,21.84
19.908000,-513.5000,11,51.90,-16.49,21.84
19.918000,-512.5000,11,51.90,-16.49,21.84
19.928000,-512.8750,11,51.90,-16.49,21.84
19.938000,-510.5000,11,51.90,-16.49,21.84
19.948000,-510.0000,11,51.90,-16.49,21.84
19.958000,-509.3750,11,51.90,-16.49,21.84
19.968000,-514.6250,11,51.90,-16.49,21.84
19.978000,-511.6250,11,51.90,-16.49,21.84
19.988000,-509.7500,11,51.90,-16.49,21.84
19.998000,-510.7500,11,51.90,-16.49,21.84
20.008000,-512.1250,11,51.90,-16.49,21.84
20.018000,-511.6250,11,51.90,-16.49,21.84
20.028000,-512.5000,11,51.90,-16.49,21.84
20.038000,-513.0000,11,51.90,-16.49,21.84
20.048000,-512.0000,11,51.90,-16.49,21.84
20.058000,-513.6250,11,51.90,-16.49,21.84
20.068000,-512.5000,11,51.90,-16.49,21.84
20.078000,-512.3750,11,51.90,-16.49,21.84
20.088000,-513.1250,11,51.90,-16.49,21.84
20.098000,-514.2500,11,51.90,-16.49,21.84
20.108000,-513.7500,11,51.90,-16.49,21.84
20.118000,-513.5000,11,51.90,-16.49,21.84
20.128000,-513.5000,11,51.90,-16.49,21.84
20.138000,-514.0000,11,51.90,-16.49,21.84
20.148000,-513.5000,11,51.90,-16.49,21.84
20.158000,-512.0000,11,51.90,-16.49,21.84
20.168000,-513.7500,11,51.90,-16.49,21.84
20.178000,-515.8750,11,51.90,-16.49,21.84
20.188000,-512.3750,11,51.90,-16.49,21.84
20.198000,-514.5000,11,51.90,-16.49,21.84
20.208000,-515.0000,11,51.90,-16.49,21.84
20.218000,-511.8750,11,51.90,-16.49,21.84
20.228000,-515.0000,11,51.90,-16.49,21.84
20.238000,-514.2500,11,51.90,-16.49,21.84
20.248000,-514.1250,11,51.90,-16.49,21.84
20.258000,-515.5000,11,51.90,-16.49,21.84
20.268000,-514.7500,11,51.90,-16.49,21.84
20.278000,-515.0000,11,51.90,-16.49,21.84
20.288000,-515.5000,11,51.90,-16.49,21.84
20.298000,-516.7500,11,51.90,-16.49,21.84
20.308000,-515.6250,11,51.90,-16.49,21.84
20.318000,-515.1250,11,51.90,-16.49,21.84
20.328000,-516.3750,11,51.90,-16.49,21.84
20.338000,-516.8750,11,51.90,-16.49,21.84
20.348000,-517.6250,11,51.90,-16.49,21.84
20.358000,-517.7500,11,51.90,-16.49,21.84
20.368000,-520.7500,11,51.90,-16.49,21.84
20.378000,-522.0000,11,51.90,-16.49,21.84
20.388000,-522.8750,11,51.90,-16.49,21.84
20.398000,-525.7500,11,51.90,-16.49,21.84
20.408000,-525.8750,11,51.90,-16.49,21.84
20.418000,-526.6250,11,51.90,-16.49,21.84
20.428000,-527.5000,11,51.90,-16.49,21.84
20.438000,-526.5000,11,51.90,-16.49,21.84
20.448000,-529.0000,11,51.90,-16.49,21.84
20.458000,-530.0000,11,51.90,-16.49,21.84
20.468000,-530.2500,11,51.90,-16.49,21.84
20.478000,-531.0000,11,51.90,-16.49,21.84
20.488000,-530.3750,11,51.90,-16.49,21.84
20.498000,-531.6250,11,51.90,-16.49,21.84
20.508000,-531.6250,11,51.90,-16.49,21.84
20.518000,-532.7500,11,51.90,-16.49,21.84
20.528000,-534.0000,11,51.90,-16.49,21.84
20.538000,-536.0000,11,51.90,-16.49,21.84
20.548000,-537.7500,11,51.90,-16.49,21.84
20.558000,-538.8750,11,51.90,-16.49,21.84
20.568000,-540.6250,11,51.90,-16.49,21.84
20.578000,-541.7500,11,51.90,-16.49,21.84
20.588000,-546.6250,11,51.90,-16.49,21.84
20.598000,-546.7500,11,51.90,-16.49,21.84
20.608000,-550.2500,11,51.90,-16.49,21.84
20.618000,-549.8750,11,51.90,-16.49,21.84
20.628000,-550.1250,11,51.90,-16.49,21.84
20.638000,-550.2500,11,51.90,-16.49,21.84
20.648000,-552.7500,11,51.90,-16.49,21.84
20.658000,-552.2500,11,51.90,-16.49,21.84
20.668000,-552.0000,11,51.90,-16.49,21.84
20.678000,-551.8750,11,51.90,-16.49,21.84
20.688000,-552.0000,11,51.90,-16.49,21.84
20.698000,-552.6250,11,51.90,-16.49,21.84
20.708000,-553.8750,11,51.90,-16.49,21.84
20.718000,-553.3750,11,51.90,-16.49,21.84
20.728000,-553.6250,11,51.90,-16.49,21.84
20.738000,-553.8750,11,51.90,-16.49,21.84
20.748000,-561.6250,11,51.90,-16.49,21.84
20.758000,-562.6250,11,51.90,-16.49,21.84
20.768000,-563.3750,11,51.90,-16.49,21.84
20.778000,-563.7500,11,51.90,-16.49,21.84
20.788000,-563.1250,11,51.90,-16.49,21.84
20.798000,-562.6250,11,51.90,-16.49,21.84
20.808000,-562.2500,11,51.90,-16.49,21.84
20.818000,-562.2500,11,51.90,-16.49,21.84
20.828000,-561.2500,11,51.90,-16.49,21.84
20.838000,-559.2500,11,51.90,-16.49,21.84
20.848000,-560.1250,11,51.90,-16.49,21.84
20.858000,-557.5000,11,51.90,-16.49,21.84
20.868000,-557.5000,11,51.90,-16.49,21.84
20.878000,-560.0000,11,51.90,-16.49,21.84
20.888000,-559.5000,11,51.90,-16.49,21.84
20.898000,-559.5000,11,51.90,-16.49,21.84
20.908000,-559.7500,11,51.90,-16.49,21.84
20.918000,-560.1250,11,51.90,-16.49,21.84
20.928000,-560.8750,11,51.90,-16.49,21.84
20.938000,-560.8750,11,51.90,-16.49,21.84
20.948000,-561.7500,11,51.90,-16.49,21.84
20.958000,-562.7500,11,51.90,-16.49,21.84
20.968000,-564.1250,11,51.90,-16.49,21.84
20.978000,-564.1250,11,51.90,-16.49,21.84
20.988000,-564.3750,11,51.90,-16.49,21.84
20.998000,-564.7500,11,51.90,-16.49,21.84
21.008000,-564.1250,11,51.90,-16.49,21.84
21.018000,-565.3750,11,51.90,-16.49,21.84
21.028000,-565.2500,11,51.90,-16.49,21.84
21.038000,-566.1250,11,51.90,-16.49,21.84
21.048000,-566.6250,11,51.90,-16.49,21.84
21.058000,-567.0000,11,51.90,-16.49,21.84
21.068000,-567.8750,11,51.90,-16.49,21.84
21.078000,-568.7500,11,51.90,-16.49,21.84
21.088000,-568.3750,11,51.90,-16.49,21.84
21.098000,-568.8750,11,51.90,-16.49,21.84
21.108000,-569.3750,11,51.90,-16.49,21.84
21.118000,-571.1250,11,51.90,-16.49,21.84
21.128000,-573.6250,11,51.90,-16.49,21.84
21.138000,-574.0000,11,51.90,-16.49,21.84
21.148000,-575.2500,11,51.90,-16.49,21.84
21.158000,-575.6250,11,51.90,-16.49,21.84
21.168000,-577.1250,11,51.90,-16.49,21.84
21.178000,-576.8750,11,51.90,-16.49,21.84
21.188000,-577.0000,11,51.90,-16.49,21.84
21.198000,-577.5000,11,51.90,-16.49,21.84
21.208000,-578.0000,11,51.90,-16.49,21.84
21.218000,-579.1250,11,51.90,-16.49,21.84
21.228000,-579.3750,11,51.90,-16.49,21.84
21.238000,-578.6250,11,51.90,-16.49,21.84
21.248000,-579.1250,11,51.90,-16.49,21.84
21.258000,-580.1250,11,51.90,-16.49,21.84
21.268000,-580.5000,11,51.90,-16.49,21.84
21.278000,-581.3750,11,51.90,-16.49,21.84
21.288000,-583.3750,11,51.90,-16.49,21.84
21.298000,-583.8750,11,51.90,-16.49,21.84
21.308000,-583.8750,11,51.90,-16.49,21.84
21.318000,-585.3750,11,51.90,-16.49,21.84
21.328000,-585.1250,11,51.90,-16.49,21.84
21.338000,-585.0000,11,51.90,-16.49,21.84
21.348000,-585.2500,11,51.90,-16.49,21.84
21.358000,-585.5000,11,51.90,-16.49,21.84
21.368000,-587.2500,11,51.90,-16.49,21.84
21.378000,-587.6250,11,51.90,-16.49,21.84
21.388000,-590.3750,11,51.90,-16.49,21.84
21.398000,-590.3750,11,51.90,-16.49,21.84
21.408000,-590.5000,11,51.90,-16.49,21.84
21.418000,-590.6250,11,51.90,-16.49,21.84
21.428000,-591.3750,11,51.90,-16.49,21.84
21.438000,-591.2500,11,51.90,-16.49,21.84
21.448000,-591.1250,11,51.90,-16.49,21.84
21.458000,-591.5000,11,51.90,-16.49,21.84
21.468000,-592.7500,11,51.90,-16.49,21.84
21.478000,-593.3750,11,51.90,-16.49,21.84
21.488000,-592.8750,11,51.90,-16.49,21.84
21.498000,-595.1250,11,51.90,-16.49,21.84
21.508000,-595.0000,11,51.90,-16.49,21.84
21.518000,-596.8750,11,51.90,-16.49,21.84
21.528000,-596.5000,11,51.90,-16.49,21.84
21.538000,-596.7500,11,51.90,-16.49,21.84
21.548000,-595.7500,11,51.90,-16.49,21.84
21.558000,-597.1250,11,51.90,-16.49,21.84
21.568000,-598.1250,11,51.90,-16.49,21.84
21.578000,-597.7500,11,51.90,-16.49,21.84
21.588000,-598.6250,11,51.90,-16.49,21.84
21.598000,-598.6250,11,51.90,-16.49,21.84
21.608000,-599.8750,11,51.90,-16.49,21.84
21.618000,-600.8750,11,51.90,-16.49,21.84
21.628000,-600.6250,11,51.90,-16.49,21.84
21.638000,-601.2500,11,51.90,-16.49,21.84
21.648000,-600.6250,11,51.90,-16.49,21.84
21.658000,-600.7500,11,51.90,-16.49,21.84
21.668000,-600.3750,11,51.90,-16.49,21.84
21.678000,-599.7500,11,51.90,-16.49,21.84
21.688000,-600.3750,11,51.90,-16.49,21.84
21.698000,-600.1250,11,51.90,-16.49,21.84
21.708000,-601.0000,11,51.90,-16.49,21.84
21.718000,-600.7500,11,51.90,-16.49,21.84
21.728000,-601.5000,11,51.90,-16.49,21.84
21.738000,-602.0000,11,51.90,-16.49,21.84
21.748000,-602.8750,11,51.90,-16.49,21.84
21.758000,-603.3750,11,51.90,-16.49,21.84
21.768000,-603.7500,11,51.90,-16.49,21.84
21.778000,-604.5000,11,51.90,-16.49,21.84
21.788000,-604.8750,11,51.90,-16.49,21.84
21.798000,-605.1250,11,51.90,-16.49,21.84
21.808000,-604.7500,11,51.90,-16.49,21.84
21.818000,-605.0000,11,51.90,-16.49,21.84
21.828000,-605.3750,11,51.90,-16.49,21.84
21.838000,-604.7500,11,51.90,-16.49,21.84
21.848000,-604.8750,11,51.90,-16.49,21.84
21.858000,-604.5000,11,51.90,-16.49,21.84
21.868000,-606.1250,11,51.90,-16.49,21.84
21.878000,-605.5000,11,51.90,-16.49,21.84
21.888000,-606.0000,11,51.90,-16.49,21.84
21.898000,-606.1250,11,51.90,-16.49,21.84
21.908000,-606.2500,11,51.90,-16.49,21.84
21.918000,-605.8750,11,51.90,-16.49,21.84
21.928000,-606.1250,11,51.90,-16.49,21.84
21.938000,-605.3750,11,51.90,-16.49,21.84
21.948000,-606.2500,11,51.90,-16.49,21.84
21.958000,-606.1250,11,51.90,-16.49,21.84
21.968000,-606.0000,11,51.90,-16.49,21.84
21.978000,-605.3750,11,51.90,-16.49,21.84
21.988000,-606.3750,11,51.90,-16.49,21.84
21.998000,-606.1250,11,51.90,-16.49,21.84
22.008000,-606.7500,11,51.90,-16.49,21.84
22.018000,-606.7500,11,51.90,-16.49,21.84
22.028000,-606.3750,11,51.90,-16.49,21.84
22.038000,-606.0000,11,51.90,-16.49,21.84
22.048000,-606.5000,11,51.90,-16.49,21.84
22.058000,-606.2500,11,51.90,-16.49,21.84
22.068000,-606.1250,11,51.90,-16.49,21.84
22.078000,-606.3750,11,51.90,-16.49,21.84
22.088000,-607.2500,11,51.90,-16.49,21.84
22.098000,-606.7500,11,51.90,-16.49,21.84
22.108000,-606.8750,11,51.90,-16.49,21.84
22.118000,-607.5000,11,51.90,-16.49,21.84
22.128000,-608.0000,11,51.90,-16.49,21.84
22.138000,-607.1250,11,51.90,-16.49,21.84
22.148000,-607.8750,11,51.90,-16.49,21.84
22.158000,-608.7500,11,51.90,-16.49,21.84
22.168000,-608.0000,11,51.90,-16.49,21.84
22.178000,-605.5000,11,51.90,-16.49,21.84
22.188000,-607.6250,11,51.90,-16.49,21.84
22.198000,-611.7500,11,51.90,-16.49,21.84
22.208000,-607.6250,11,51.90,-16.49,21.84
22.218000,-608.8750,11,51.90,-16.49,21.84
22.228000,-614.2500,11,51.90,-16.49,21.84
22.238000,-611.3750,11,51.90,-16.49,21.84
22.248000,-610.8750,11,51.90,-16.49,21.84
22.258000,-610.2500,11,51.90,-16.49,21.84
22.268000,-615.0000,11,51.90,-16.49,21.84
22.278000,-614.6250,11,51.90,-16.49,21.84
22.288000,-613.3750,11,51.90,-16.49,21.84
22.298000,-613.2500,11,51.90,-16.49,21.84
22.308000,-615.2500,11,51.90,-16.49,21.84
22.318000,-615.0000,11,51.90,-16.49,21.84
22.328000,-613.5000,11,51.90,-16.49,21.84
22.338000,-614.3750,11,51.90,-16.49,21.84
22.348000,-614.6250,11,51.90,-16.49,21.84
22.358000,-614.7500,11,51.90,-16.49,21.84
22.368000,-615.1250,11,51.90,-16.49,21.84
22.378000,-617.5000,11,51.90,-16.49,21.84
22.388000,-616.0000,11,51.90,-16.49,21.84
22.398000,-617.2500,11,51.90,-16.49,21.84
22.408000,-618.0000,13,51.90,-15.12,24.34
22.418000,-617.6250,13,51.90,-15.12,24.34
22.428000,-617.6250,13,51.90,-15.12,24.34
22.438000,-618.0000,13,51.90,-15.12,24.34
22.448000,-619.0000,13,51.90,-15.12,24.34
22.458000,-619.3750,13,51.90,-15.12,24.34
22.468000,-618.6250,13,51.90,-15.12,24.34
22.478000,-619.8750,13,51.90,-15.12,24.34
22.488000,-619.8750,13,51.90,-15.12,24.34
22.498000,-619.7500,13,51.90,-15.12,24.34
22.508000,-620.3750,13,51.90,-15.12,24.34
22.518000,-621.3750,13,51.90,-15.12,24.34
22.528000,-621.3750,13,51.90,-15.12,24.34
22.538000,-621.3750,13,51.90,-15.12,24.34
22.548000,-622.1250,13,51.90,-15.12,24.34
22.558000,-622.0000,13,51.90,-15.12,24.34
22.568000,-622.8750,13,51.90,-15.12,24.34
22.578000,-623.0000,13,51.90,-15.12,24.34
22.588000,-623.3750,13,51.90,-15.12,24.34
22.598000,-623.8750,13,51.90,-15.12,24.34
22.608000,-624.0000,13,51.90,-15.12,24.34
22.618000,-624.0000,13,51.90,-15.12,24.34
22.628000,-624.8750,13,51.90,-15.12,24.34
22.638000,-624.5000,13,51.90,-15.12,24.34
22.648000,-625.1250,13,51.90,-15.12,24.34
22.658000,-625.5000,13,51.90,-15.12,24.34
22.668000,-625.2500,13,51.90,-15.12,24.34
22.678000,-626.7500,13,51.90,-15.12,24.34
22.688000,-626.5000,13,51.90,-15.12,24.34
22.698000,-626.1250,13,51.90,-15.12,24.34
22.708000,-627.5000,13,51.90,-15.12,24.34
22.718000,-627.0000,13,51.90,-15.12,24.34
22.728000,-627.7500,13,51.90,-15.12,24.34
22.738000,-628.1250,13,51.90,-15.12,24.34
22.748000,-627.8750,13,51.90,-15.12,24.34
22.758000,-627.8750,13,51.90,-15.12,24.34
22.768000,-629.2500,13,51.90,-15.12,24.34
22.778000,-628.1250,13,51.90,-15.12,24.34
22.788000,-629.2500,13,51.90,-15.12,24.34
22.798000,-631.0000,13,51.90,-15.12,24.34
22.808000,-629.7500,13,51.90,-15.12,24.34
22.818000,-629.7500,13,51.90,-15.12,24.34
22.828000,-630.2500,13,51.90,-15.12,24.34
22.838000,-631.5000,13,51.90,-15.12,24.34
22.848000,-633.0000,13,51.90,-15.12,24.34
22.858000,-632.0000,13,51.90,-15.12,24.34
22.868000,-631.7500,13,51.90,-15.12,24.34
22.878000,-632.8750,13,51.90,-15.12,24.34
22.888000,-632.5000,13,51.90,-15.12,24.34
22.898000,-633.7500,13,51.90,-15.12,24.34
22.908000,-632.8750,13,51.90,-15.12,24.34
22.918000,-634.6250,13,51.90,-15.12,24.34
22.928000,-635.3750,13,51.90,-15.12,24.34
22.938000,-633.6250,13,51.90,-15.12,24.34
22.948000,-635.6250,13,51.90,-15.12,24.34
22.958000,-635.1250,13,51.90,-15.12,24.34
22.968000,-634.7500,13,51.90,-15.12,24.34
22.978000,-635.2500,13,51.90,-15.12,24.34
22.988000,-635.6250,13,51.90,-15.12,24.34
22.998000,-635.7500,13,51.90,-15.12,24.34
23.008000,-635.3750,13,51.90,-15.12,24.34
23.018000,-636.7500,13,51.90,-15.12,24.34
23.028000,-637.3750,13,51.90,-15.12,24.34
23.038000,-638.0000,13,51.90,-15.12,24.34
23.048000,-637.3750,13,51.90,-15.12,24.34
23.058000,-636.8750,13,51.90,-15.12,24.34
23.068000,-638.3750,13,51.90,-15.12,24.34
23.078000,-638.6250,13,51.90,-15.12,24.34
23.088000,-639.2500,13,51.90,-15.12,24.34
23.098000,-639.2500,13,51.90,-15.12,24.34
23.108000,-639.0000,13,51.90,-15.12,24.34
23.118000,-640.1250,13,51.90,-15.12,24.34
23.128000,-639.8750,13,51.90,-15.12,24.34
23.138000,-640.5000,13,51.90,-15.12,24.34
23.148000,-640.5000,13,51.90,-15.12,24.34
23.158000,-641.3750,13,51.90,-15.12,24.34
23.168000,-641.2500,13,51.90,-15.12,24.34
23.178000,-641.8750,13,51.90,-15.12,24.34
23.188000,-641.1250,13,51.90,-15.12,24.34
23.198000,-643.0000,13,51.90,-15.12,24.34
23.208000,-641.8750,13,51.90,-15.12,24.34
23.218000,-643.2500,13,51.90,-15.12,24.34
23.228000,-642.8750,13,51.90,-15.12,24.34
23.238000,-642.3750,13,51.90,-15.12,24.34
23.248000,-642.8750,13,51.90,-15.12,24.34
23.258000,-644.3750,13,51.90,-15.12,24.34
23.268000,-644.0000,13,51.90,-15.12,24.34
23.278000,-645.2500,13,51.90,-15.12,24.34
23.288000,-645.8750,13,51.90,-15.12,24.34
23.298000,-644.8750,13,51.90,-15.12,24.34
23.308000,-645.5000,13,51.90,-15.12,24.34
23.318000,-645.6250,13,51.90,-15.12,24.34
23.328000,-646.0000,13,51.90,-15.12,24.34
23.338000,-645.8750,13,51.90,-15.12,24.34
23.348000,-647.0000,13,51.90,-15.12,24.34
23.358000,-646.7500,13,51.90,-15.12,24.34
23.368000,-646.7500,13,51.90,-15.12,24.34
23.378000,-647.3750,13,51.90,-15.12,24.34
23.388000,-647.0000,13,51.90,-15.12,24.34
23.398000,-648.0000,13,51.90,-15.12,24.34
23.408000,-647.6250,13,51.90,-15.12,24.34
23.418000,-648.1250,13,51.90,-15.12,24.34
23.428000,-648.6250,13,51.90,-15.12,24.34
23.438000,-648.8750,13,51.90,-15.12,24.34
23.448000,-648.8750,13,51.90,-15.12,24.34
23.458000,-649.6250,13,51.90,-15.12,24.34
23.468000,-648.6250,13,51.90,-15.12,24.34
23.478000,-650.2500,13,51.90,-15.12,24.34
23.488000,-650.5000,13,51.90,-15.12,24.34
23.498000,-650.0000,13,51.90,-15.12,24.34
23.508000,-650.0000,13,51.90,-15.12,24.34
23.518000,-650.6250,13,51.90,-15.12,24.34
23.528000,-651.0000,13,51.90,-15.12,24.34
23.538000,-651.5000,13,51.90,-15.12,24.34
23.548000,-651.3750,13,51.90,-15.12,24.34
23.558000,-651.7500,13,51.90,-15.12,24.34
23.568000,-652.6250,13,51.90,-15.12,24.34
23.578000,-652.1250,13,51.90,-15.12,24.34
23.588000,-653.1250,13,51.90,-15.12,24.34
23.598000,-652.8750,13,51.90,-15.12,24.34
23.608000,-654.0000,13,51.90,-15.12,24.34
23.618000,-654.1250,13,51.90,-15.12,24.34
23.628000,-653.5000,13,51.90,-15.12,24.34
23.638000,-653.6250,13,51.90,-15.12,24.34
23.648000,-654.0000,13,51.90,-15.12,24.34
23.658000,-655.2500,13,51.90,-15.12,24.34
23.668000,-654.0000,13,51.90,-15.12,24.34
23.678000,-655.0000,13,51.90,-15.12,24.34
23.688000,-656.1250,13,51.90,-15.12,24.34
23.698000,-655.3750,13,51.90,-15.12,24.34
23.708000,-656.1250,13,51.90,-15.12,24.34
23.718000,-655.8750,13,51.90,-15.12,24.34
23.728000,-657.6250,13,51.90,-15.12,24.34
23.738000,-657.3750,13,51.90,-15.12,24.34
23.748000,-657.2500,13,51.90,-15.12,24.34
23.758000,-657.1250,13,51.90,-15.12,24.34
23.768000,-657.5000,13,51.90,-15.12,24.34
23.778000,-658.1250,13,51.90,-15.12,24.34
23.788000,-658.6250,13,51.90,-15.12,24.34
23.798000,-658.3750,13,51.90,-15.12,24.34
23.808000,-658.7500,13,51.90,-15.12,24.34
23.818000,-660.1250,13,51.90,-15.12,24.34
23.828000,-659.0000,13,51.90,-15.12,24.34
23.838000,-659.7500,13,51.90,-15.12,24.34
23.848000,-660.1250,13,51.90,-15.12,24.34
23.858000,-660.7500,13,51.90,-15.12,24.34
23.868000,-660.3750,13,51.90,-15.12,24.34
23.878000,-660.1250,13,51.90,-15.12,24.34
23.888000,-661.3750,13,51.90,-15.12,24.34
23.898000,-661.1250,13,51.90,-15.12,24.34
23.908000,-662.1250,13,51.90,-15.12,24.34
23.918000,-662.7500,13,51.90,-15.12,24.34
23.928000,-662.3750,13,51.90,-15.12,24.34
23.938000,-662.7500,13,51.90,-15.12,24.34
23.948000,-662.3750,13,51.90,-15.12,24.34
23.958000,-662.3750,13,51.90,-15.12,24.34
23.968000,-663.7500,13,51.90,-15.12,24.34
23.978000,-664.2500,13,51.90,-15.12,24.34
23.988000,-664.1250,13,51.90,-15.12,24.34
23.998000,-663.8750,13,51.90,-15.12,24.34
24.008000,-665.1250,13,51.90,-15.12,24.34
24.018000,-664.0000,13,51.90,-15.12,24.34
24.028000,-665.6250,13,51.90,-15.12,24.34
24.038000,-666.2500,13,51.90,-15.12,24.34
24.048000,-665.6250,13,51.90,-15.12,24.34
24.058000,-666.5000,13,51.90,-15.12,24.34
24.068000,-666.7500,13,51.90,-15.12,24.34
24.078000,-666.6250,13,51.90,-15.12,24.34
24.088000,-666.6250,13,51.90,-15.12,24.34
24.098000,-667.7500,13,51.90,-15.12,24.34
24.108000,-667.6250,13,51.90,-15.12,24.34
24.118000,-667.1250,13,51.90,-15.12,24.34
24.128000,-668.2500,13,51.90,-15.12,24.34
24.138000,-668.8750,13,51.90,-15.12,24.34
24.148000,-669.3750,13,51.90,-15.12,24.34
24.158000,-669.1250,13,51.90,-15.12,24.34
24.168000,-668.8750,13,51.90,-15.12,24.34
24.178000,-670.0000,13,51.90,-15.12,24.34
24.188000,-670.0000,13,51.90,-15.12,24.34
24.198000,-670.3750,13,51.90,-15.12,24.34
24.208000,-671.5000,13,51.90,-15.12,24.34
24.218000,-673.0000,13,51.90,-15.12,24.34
24.228000,-672.3750,13,51.90,-15.12,24.34
24.238000,-674.2500,13,51.90,-15.12,24.34
24.248000,-675.6250,13,51.90,-15.12,24.34
24.258000,-676.8750,13,51.90,-15.12,24.34
24.268000,-678.1250,13,51.90,-15.12,24.34
24.278000,-678.0000,13,51.90,-15.12,24.34
24.288000,-679.8750,13,51.90,-15.12,24.34
24.298000,-679.3750,13,51.90,-15.12,24.34
24.308000,-680.1250,13,51.90,-15.12,24.34
24.318000,-682.0000,13,51.90,-15.12,24.34
24.328000,-680.1250,13,51.90,-15.12,24.34
24.338000,-681.6250,13,51.90,-15.12,24.34
24.348000,-681.3750,13,51.90,-15.12,24.34
24.358000,-682.2500,13,51.90,-15.12,24.34
24.368000,-681.8750,13,51.90,-15.12,24.34
24.378000,-682.5000,13,51.90,-15.12,24.34
24.388000,-683.1250,13,51.90,-15.12,24.34
24.398000,-683.8750,13,51.90,-15.12,24.34
24.408000,-685.8750,13,51.90,-15.12,24.34
24.418000,-688.0000,13,51.90,-15.12,24.34
24.428000,-687.7500,13,51.90,-15.12,24.34
24.438000,-688.7500,13,51.90,-15.12,24.34
24.448000,-690.0000,13,51.90,-15.12,24.34
24.458000,-690.6250,13,51.90,-15.12,24.34
24.468000,-692.2500,13,51.90,-15.12,24.34
24.478000,-691.6250,13,51.90,-15.12,24.34
24.488000,-689.2500,13,51.90,-15.12,24.34
24.498000,-692.0000,13,51.90,-15.12,24.34
24.508000,-692.1250,13,51.90,-15.12,24.34
24.518000,-692.6250,13,51.90,-15.12,24.34
24.528000,-692.0000,13,51.90,-15.12,24.34
24.538000,-693.6250,13,51.90,-15.12,24.34
24.548000,-693.6250,13,51.90,-15.12,24.34
24.558000,-692.2500,13,51.90,-15.12,24.34
24.568000,-692.5000,13,51.90,-15.12,24.34
24.578000,-693.6250,13,51.90,-15.12,24.34
24.588000,-692.8750,13,51.90,-15.12,24.34
24.598000,-693.5000,13,51.90,-15.12,24.34
24.608000,-694.0000,13,51.90,-15.12,24.34
24.618000,-692.6250,13,51.90,-15.12,24.34
24.628000,-693.6250,13,51.90,-15.12,24.34
24.638000,-692.7500,13,51.90,-15.12,24.34
24.648000,-693.3750,13,51.90,-15.12,24.34
24.658000,-694.0000,13,51.90,-15.12,24.34
24.668000,-692.7500,13,51.90,-15.12,24.34
24.678000,-692.1250,13,51.90,-15.12,24.34
24.688000,-692.3750,13,51.90,-15.12,24.34
24.698000,-691.3750,13,51.90,-15.12,24.34
24.708000,-692.6250,13,51.90,-15.12,24.34
24.718000,-692.5000,13,51.90,-15.12,24.34
24.728000,-691.2500,13,51.90,-15.12,24.34
24.738000,-691.6250,13,51.90,-15.12,24.34
24.748000,-692.6250,13,51.90,-15.12,24.34
24.758000,-691.1250,13,51.90,-15.12,24.34
24.768000,-693.3750,13,51.90,-15.12,24.34
24.778000,-691.8750,13,51.90,-15.12,24.34
24.788000,-693.1250,13,51.90,-15.12,24.34
24.798000,-693.8750,13,51.90,-15.12,24.34
24.808000,-692.7500,13,51.90,-15.12,24.34
24.818000,-692.5000,13,51.90,-15.12,24.34
24.828000,-693.1250,13,51.90,-15.12,24.34
24.838000,-693.6250,13,51.90,-15.12,24.34
24.848000,-692.2500,13,51.90,-15.12,24.34
24.858000,-692.0000,13,51.90,-15.12,24.34
24.868000,-691.1250,13,51.90,-15.12,24.34
24.878000,-693.2500,13,51.90,-15.12,24.34
24.888000,-692.5000,13,51.90,-15.12,24.34
24.898000,-692.7500,13,51.90,-15.12,24.34
24.908000,-692.1250,13,51.90,-15.12,24.34
24.918000,-693.5000,13,51.90,-15.12,24.34
24.928000,-693.5000,13,51.90,-15.12,24.34
24.938000,-691.7500,13,51.90,-15.12,24.34
24.948000,-692.0000,13,51.90,-15.12,24.34
24.958000,-692.6250,13,51.90,-15.12,24.34
24.968000,-692.2500,13,51.90,-15.12,24.34
24.978000,-694.5000,13,51.90,-15.12,24.34
24.988000,-694.8750,13,51.90,-15.12,24.34
24.998000,-693.1250,13,51.90,-15.12,24.34
25.008000,-694.8750,13,51.90,-15.12,24.34
25.018000,-693.6250,13,51.90,-15.12,24.34
25.028000,-693.7500,13,51.90,-15.12,24.34
25.038000,-695.3750,13,51.90,-15.12,24.34
25.048000,-695.3750,13,51.90,-15.12,24.34
25.058000,-695.8750,13,51.90,-15.12,24.34
25.068000,-696.5000,13,51.90,-15.12,24.34
25.078000,-695.7500,13,51.90,-15.12,24.34
25.088000,-698.1250,13,51.90,-15.12,24.34
25.098000,-698.0000,13,51.90,-15.12,24.34
25.108000,-697.7500,13,51.90,-15.12,24.34
25.118000,-696.5000,13,51.90,-15.12,24.34
25.128000,-697.6250,13,51.90,-15.12,24.34
25.138000,-699.3750,13,51.90,-15.12,24.34
25.148000,-701.1250,13,51.90,-15.12,24.34
25.158000,-699.5000,13,51.90,-15.12,24.34
25.168000,-700.1250,13,51.90,-15.12,24.34
25.178000,-700.6250,13,51.90,-15.12,24.34
25.188000,-702.0000,13,51.90,-15.12,24.34
25.198000,-702.7500,13,51.90,-15.12,24.34
25.208000,-702.0000,13,51.90,-15.12,24.34
25.218000,-702.8750,13,51.90,-15.12,24.34
25.228000,-701.8750,13,51.90,-15.12,24.34
25.238000,-702.6250,13,51.90,-15.12,24.34
25.248000,-702.8750,13,51.90,-15.12,24.34
25.258000,-703.3750,13,51.90,-15.12,24.34
25.268000,-702.1250,13,51.90,-15.12,24.34
25.278000,-702.6250,13,51.90,-15.12,24.34
25.288000,-702.8750,13,51.90,-15.12,24.34
25.298000,-704.8750,13,51.90,-15.12,24.34
25.308000,-706.1250,13,51.90,-15.12,24.34
25.318000,-705.6250,13,51.90,-15.12,24.34
25.328000,-704.7500,13,51.90,-15.12,24.34
25.338000,-706.0000,13,51.90,-15.12,24.34
25.348000,-704.5000,13,51.90,-15.12,24.34
25.358000,-706.1250,13,51.90,-15.12,24.34
25.368000,-705.3750,13,51.90,-15.12,24.34
25.378000,-704.5000,13,51.90,-15.12,24.34
25.388000,-706.2500,13,51.90,-15.12,24.34
25.398000,-706.2500,13,51.90,-15.12,24.34
25.408000,-706.0000,13,51.90,-15.12,24.34
25.418000,-706.3750,13,51.90,-15.12,24.34
25.428000,-707.3750,13,51.90,-15.12,24.34
25.438000,-706.5000,13,51.90,-15.12,24.34
25.448000,-706.3750,13,51.90,-15.12,24.34
25.458000,-707.6250,13,51.90,-15.12,24.34
25.468000,-708.3750,13,51.90,-15.12,24.34
25.478000,-707.8750,13,51.90,-15.12,24.34
25.488000,-708.0000,13,51.90,-15.12,24.34
25.498000,-709.2500,13,51.90,-15.12,24.34
25.508000,-710.5000,13,51.90,-15.12,24.34
25.518000,-708.1250,13,51.90,-15.12,24.34
25.528000,-710.5000,13,51.90,-15.12,24.34
25.538000,-709.7500,13,51.90,-15.12,24.34
25.548000,-712.2500,13,51.90,-15.12,24.34
25.558000,-711.0000,13,51.90,-15.12,24.34
25.568000,-713.6250,13,51.90,-15.12,24.34
25.578000,-714.0000,13,51.90,-15.12,24.34
25.588000,-713.5000,13,51.90,-15.12,24.34
25.598000,-716.5000,13,51.90,-15.12,24.34
25.608000,-717.0000,13,51.90,-15.12,24.34
25.618000,-715.6250,13,51.90,-15.12,24.34
25.628000,-715.5000,13,51.90,-15.12,24.34
25.638000,-717.0000,13,51.90,-15.12,24.34
25.648000,-716.8750,13,51.90,-15.12,24.34
25.658000,-715.7500,13,51.90,-15.12,24.34
25.668000,-714.6250,13,51.90,-15.12,24.34
25.678000,-717.1250,13,51.90,-15.12,24.34
25.688000,-715.3750,13,51.90,-15.12,24.34
25.698000,-716.3750,13,51.90,-15.12,24.34
25.708000,-717.3750,13,51.90,-15.12,24.34
25.718000,-718.5000,13,51.90,-15.12,24.34
25.728000,-718.7500,13,51.90,-15.12,24.34
25.738000,-718.6250,13,51.90,-15.12,24.34
25.748000,-720.2500,13,51.90,-15.12,24.34
25.758000,-719.0000,13,51.90,-15.12,24.34
25.768000,-718.3750,13,51.90,-15.12,24.34
25.778000,-718.1250,13,51.90,-15.12,24.34
25.788000,-718.7500,13,51.90,-15.12,24.34
25.798000,-717.3750,13,51.90,-15.12,24.34
25.808000,-720.1250,13,51.90,-15.12,24.34
25.818000,-719.5000,13,51.90,-15.12,24.34
25.828000,-720.3750,13,51.90,-15.12,24.34
25.838000,-719.5000,13,51.90,-15.12,24.34
25.848000,-720.5000,13,51.90,-15.12,24.34
25.858000,-720.8750,13,51.90,-15.12,24.34
25.868000,-720.5000,13,51.90,-15.12,24.34
25.878000,-719.5000,13,51.90,-15.12,24.34
25.888000,-719.6250,13,51.90,-15.12,24.34
25.898000,-719.7500,13,51.90,-15.12,24.34
25.908000,-720.0000,13,51.90,-15.12,24.34
25.918000,-721.0000,13,51.90,-15.12,24.34
25.928000,-717.8750,13,51.90,-15.12,24.34
25.938000,-719.3750,13,51.90,-15.12,24.34
25.948000,-720.0000,13,51.90,-15.12,24.34
25.958000,-718.1250,13,51.90,-15.12,24.34
25.968000,-718.1250,13,51.90,-15.12,24.34
25.978000,-719.5000,13,51.90,-15.12,24.34
25.988000,-720.3750,13,51.90,-15.12,24.34
25.998000,-718.3750,13,51.90,-15.12,24.34
26.008000,-718.7500,13,51.90,-15.12,24.34
26.018000,-719.2500,13,51.90,-15.12,24.34
26.028000,-718.3750,13,51.90,-15.12,24.34
26.038000,-718.3750,13,51.90,-15.12,24.34
26.048000,-717.7500,13,51.90,-15.12,24.34
26.058000,-718.8750,13,51.90,-15.12,24.34
26.068000,-718.3750,13,51.90,-15.12,24.34
26.078000,-717.0000,13,51.90,-15.12,24.34
26.088000,-718.1250,13,51.90,-15.12,24.34
26.098000,-717.3750,13,51.90,-15.12,24.34
26.108000,-717.8750,13,51.90,-15.12,24.34
26.118000,-718.0000,13,51.90,-15.12,24.34
26.128000,-717.3750,13,51.90,-15.12,24.34
26.138000,-715.6250,13,51.90,-15.12,24.34
26.148000,-717.1250,13,51.90,-15.12,24.34
26.158000,-716.1250,13,51.90,-15.12,24.34
26.168000,-717.2500,13,51.90,-15.12,24.34
26.178000,-716.8750,13,51.90,-15.12,24.34
26.188000,-715.5000,13,51.90,-15.12,24.34
26.198000,-715.5000,13,51.90,-15.12,24.34
26.208000,-716.7500,13,51.90,-15.12,24.34
26.218000,-716.3750,13,51.90,-15.12,24.34
26.228000,-715.2500,13,51.90,-15.12,24.34
26.238000,-715.1250,13,51.90,-15.12,24.34
26.248000,-716.0000,13,51.90,-15.12,24.34
26.258000,-715.7500,13,51.90,-15.12,24.34
26.268000,-716.6250,13,51.90,-15.12,24.34
26.278000,-717.3750,13,51.90,-15.12,24.34
26.288000,-713.6250,13,51.90,-15.12,24.34
26.298000,-716.0000,13,51.90,-15.12,24.34
26.308000,-715.8750,13,51.90,-15.12,24.34
26.318000,-715.0000,13,51.90,-15.12,24.34
26.328000,-715.7500,13,51.90,-15.12,24.34
26.338000,-714.2500,13,51.90,-15.12,24.34
26.348000,-713.3750,13,51.90,-15.12,24.34
26.358000,-716.5000,15,105.08,-19.09,27.78
26.368000,-712.8750,15,105.08,-19.09,27.78
26.378000,-715.1250,15,105.08,-19.09,27.78
26.388000,-715.1250,15,105.08,-19.09,27.78
26.398000,-713.8750,15,105.08,-19.09,27.78
26.408000,-712.0000,15,105.08,-19.09,27.78
26.418000,-713.6250,15,105.08,-19.09,27.78
26.428000,-712.3750,15,105.08,-19.09,27.78
26.438000,-712.6250,15,105.08,-19.09,27.78
26.448000,-711.5000,15,105.08,-19.09,27.78
26.458000,-713.1250,15,105.08,-19.09,27.78
26.468000,-709.2500,15,105.08,-19.09,27.78
26.478000,-711.3750,15,105.08,-19.09,27.78
26.488000,-710.1250,15,105.08,-19.09,27.78
26.498000,-710.8750,15,105.08,-19.09,27.78
26.508000,-710.1250,15,105.08,-19.09,27.78
26.518000,-709.0000,15,105.08,-19.09,27.78
26.528000,-711.3750,15,105.08,-19.09,27.78
26.538000,-708.7500,15,105.08,-19.09,27.78
26.548000,-710.3750,15,105.08,-19.09,27.78
26.558000,-709.6250,15,105.08,-19.09,27.78
26.568000,-707.5000,15,105.08,-19.09,27.78
26.578000,-709.0000,15,105.08,-19.09,27.78
26.588000,-708.5000,15,105.08,-19.09,27.78
26.598000,-708.5000,15,105.08,-19.09,27.78
26.608000,-708.2500,15,105.08,-19.09,27.78
26.618000,-707.6250,15,105.08,-19.09,27.78
26.628000,-707.0000,15,105.08,-19.09,27.78
26.638000,-707.2500,15,105.08,-19.09,27.78
26.648000,-707.6250,15,105.08,-19.09,27.78
26.658000,-707.2500,15,105.08,-19.09,27.78
26.668000,-707.5000,15,105.08,-19.09,27.78
26.678000,-706.8750,15,105.08,-19.09,27.78
26.688000,-706.3750,15,105.08,-19.09,27.78
26.698000,-706.6250,15,105.08,-19.09,27.78
26.708000,-706.2500,15,105.08,-19.09,27.78
26.718000,-706.7500,15,105.08,-19.09,27.78
26.728000,-706.7500,15,105.08,-19.09,27.78
26.738000,-705.1250,15,105.08,-19.09,27.78
26.748000,-705.3750,15,105.08,-19.09,27.78
26.758000,-705.6250,15,105.08,-19.09,27.78
26.768000,-704.0000,15,105.08,-19.09,27.78
26.778000,-705.1250,15,105.08,-19.09,27.78
26.788000,-704.7500,15,105.08,-19.09,27.78
26.798000,-702.8750,15,105.08,-19.09,27.78
26.808000,-703.1250,15,105.08,-19.09,27.78
26.818000,-702.5000,15,105.08,-19.09,27.78
26.828000,-702.8750,15,105.08,-19.09,27.78
26.838000,-702.0000,15,105.08,-19.09,27.78
26.848000,-701.8750,15,105.08,-19.09,27.78
26.858000,-701.8750,15,105.08,-19.09,27.78
26.868000,-701.3750,15,105.08,-19.09,27.78
26.878000,-701.2500,15,105.08,-19.09,27.78
26.888000,-700.1250,15,105.08,-19.09,27.78
26.898000,-699.6250,15,105.08,-19.09,27.78
26.908000,-699.1250,15,105.08,-19.09,27.78
26.918000,-698.2500,15,105.08,-19.09,27.78
26.928000,-698.2500,15,105.08,-19.09,27.78
26.938000,-699.1250,15,105.08,-19.09,27.78
26.948000,-699.0000,15,105.08,-19.09,27.78
26.958000,-699.2500,15,105.08,-19.09,27.78
26.968000,-698.2500,15,105.08,-19.09,27.78
26.978000,-698.0000,15,105.08,-19.09,27.78
26.988000,-697.8750,15,105.08,-19.09,27.78
26.998000,-696.3750,15,105.08,-19.09,27.78
27.008000,-696.0000,15,105.08,-19.09,27.78
27.018000,-695.6250,15,105.08,-19.09,27.78
27.028000,-698.0000,15,105.08,-19.09,27.78
27.038000,-696.1250,15,105.08,-19.09,27.78
27.048000,-695.3750,15,105.08,-19.09,27.78
27.058000,-696.5000,15,105.08,-19.09,27.78
27.068000,-696.3750,15,105.08,-19.09,27.78
27.078000,-696.1250,15,105.08,-19.09,27.78
27.088000,-695.7500,15,105.08,-19.09,27.78
27.098000,-695.8750,15,105.08,-19.09,27.78
27.108000,-694.6250,15,105.08,-19.09,27.78
27.118000,-695.5000,15,105.08,-19.09,27.78
27.128000,-695.3750,15,105.08,-19.09,27.78
27.138000,-694.6250,15,105.08,-19.09,27.78
27.148000,-695.1250,15,105.08,-19.09,27.78
27.158000,-694.5000,15,105.08,-19.09,27.78
27.168000,-694.6250,15,105.08,-19.09,27.78
27.178000,-693.8750,15,105.08,-19.09,27.78
27.188000,-693.5000,15,105.08,-19.09,27.78
27.198000,-694.8750,15,105.08,-19.09,27.78
27.208000,-695.1250,15,105.08,-19.09,27.78
27.218000,-694.6250,15,105.08,-19.09,27.78
27.228000,-694.1250,15,105.08,-19.09,27.78
27.238000,-693.6250,15,105.08,-19.09,27.78
27.248000,-694.6250,15,105.08,-19.09,27.78
27.258000,-694.3750,15,105.08,-19.09,27.78
27.268000,-692.8750,15,105.08,-19.09,27.78
27.278000,-693.0000,15,105.08,-19.09,27.78
27.288000,-692.6250,15,105.08,-19.09,27.78
27.298000,-693.1250,15,105.08,-19.09,27.78
27.308000,-693.1250,15,105.08,-19.09,27.78
27.318000,-693.0000,15,105.08,-19.09,27.78
27.328000,-693.0000,15,105.08,-19.09,27.78
27.338000,-692.3750,15,105.08,-19.09,27.78
27.348000,-692.2500,15,105.08,-19.09,27.78
27.358000,-691.7500,15,105.08,-19.09,27.78
27.368000,-692.6250,15,105.08,-19.09,27.78
27.378000,-692.0000,15,105.08,-19.09,27.78
27.388000,-692.0000,15,105.08,-19.09,27.78
27.398000,-693.2500,15,105.08,-19.09,27.78
27.408000,-693.0000,15,105.08,-19.09,27.78
27.418000,-692.5000,15,105.08,-19.09,27.78
27.428000,-692.0000,15,105.08,-19.09,27.78
27.438000,-692.2500,15,105.08,-19.09,27.78
27.448000,-691.2500,15,105.08,-19.09,27.78
27.458000,-691.5000,15,105.08,-19.09,27.78
27.468000,-692.6250,15,105.08,-19.09,27.78
27.478000,-692.1250,15,105.08,-19.09,27.78
27.488000,-692.6250,15,105.08,-19.09,27.78
27.498000,-691.8750,15,105.08,-19.09,27.78
27.508000,-692.3750,15,105.08,-19.09,27.78
27.518000,-691.8750,15,105.08,-19.09,27.78
27.528000,-690.8750,15,105.08,-19.09,27.78
27.538000,-691.6250,15,105.08,-19.09,27.78
27.548000,-691.5000,15,105.08,-19.09,27.78
27.558000,-691.2500,15,105.08,-19.09,27.78
27.568000,-692.5000,15,105.08,-19.09,27.78
27.578000,-690.3750,15,105.08,-19.09,27.78
27.588000,-691.8750,15,105.08,-19.09,27.78
27.598000,-690.7500,15,105.08,-19.09,27.78
27.608000,-691.7500,15,105.08,-19.09,27.78
27.618000,-692.2500,15,105.08,-19.09,27.78
27.628000,-691.5000,15,105.08,-19.09,27.78
27.638000,-689.3750,15,105.08,-19.09,27.78
27.648000,-691.8750,15,105.08,-19.09,27.78
27.658000,-691.5000,15,105.08,-19.09,27.78
27.668000,-690.6250,15,105.08,-19.09,27.78
27.678000,-692.5000,15,105.08,-19.09,27.78
27.688000,-690.2500,15,105.08,-19.09,27.78
27.698000,-690.3750,15,105.08,-19.09,27.78
27.708000,-690.8750,15,105.08,-19.09,27.78
27.718000,-690.7500,15,105.08,-19.09,27.78
27.728000,-689.7500,15,105.08,-19.09,27.78
27.738000,-689.1250,15,105.08,-19.09,27.78
27.748000,-689.5000,15,105.08,-19.09,27.78
27.758000,-689.2500,15,105.08,-19.09,27.78
27.768000,-689.0000,15,105.08,-19.09,27.78
27.778000,-689.5000,15,105.08,-19.09,27.78
27.788000,-689.1250,15,105.08,-19.09,27.78
27.798000,-689.1250,15,105.08,-19.09,27.78
27.808000,-688.7500,15,105.08,-19.09,27.78
27.818000,-690.0000,15,105.08,-19.09,27.78
27.828000,-689.2500,15,105.08,-19.09,27.78
27.838000,-689.0000,15,105.08,-19.09,27.78
27.848000,-689.7500,15,105.08,-19.09,27.78
27.858000,-687.8750,15,105.08,-19.09,27.78
27.868000,-691.6250,15,105.08,-19.09,27.78
27.878000,-688.2500,15,105.08,-19.09,27.78
27.888000,-688.1250,15,105.08,-19.09,27.78
27.898000,-690.6250,15,105.08,-19.09,27.78
27.908000,-689.7500,15,105.08,-19.09,27.78
27.918000,-689.8750,15,105.08,-19.09,27.78
27.928000,-690.0000,15,105.08,-19.09,27.78
27.938000,-688.8750,15,105.08,-19.09,27.78
27.948000,-691.0000,15,105.08,-19.09,27.78
27.958000,-689.0000,15,105.08,-19.09,27.78
27.968000,-689.3750,15,105.08,-19.09,27.78
27.978000,-688.7500,15,105.08,-19.09,27.78
27.988000,-688.2500,15,105.08,-19.09,27.78
27.998000,-689.7500,15,105.08,-19.09,27.78
28.008000,-688.6250,15,105.08,-19.09,27.78
28.018000,-688.5000,15,105.08,-19.09,27.78
28.028000,-689.1250,15,105.08,-19.09,27.78
28.038000,-688.7500,15,105.08,-19.09,27.78
28.048000,-687.3750,15,105.08,-19.09,27.78
28.058000,-686.7500,15,105.08,-19.09,27.78
28.068000,-690.3750,15,105.08,-19.09,27.78
28.078000,-689.7500,15,105.08,-19.09,27.78
28.088000,-690.0000,15,105.08,-19.09,27.78
28.098000,-687.2500,15,105.08,-19.09,27.78
28.108000,-687.1250,15,105.08,-19.09,27.78
28.118000,-690.3750,15,105.08,-19.09,27.78
28.128000,-688.8750,15,105.08,-19.09,27.78
28.138000,-688.7500,15,105.08,-19.09,27.78
28.148000,-690.6250,15,105.08,-19.09,27.78
28.158000,-689.3750,15,105.08,-19.09,27.78
28.168000,-689.2500,15,105.08,-19.09,27.78
28.178000,-688.8750,15,105.08,-19.09,27.78
28.188000,-689.5000,15,105.08,-19.09,27.78
28.198000,-688.7500,15,105.08,-19.09,27.78
28.208000,-688.6250,15,105.08,-19.09,27.78
28.218000,-689.5000,15,105.08,-19.09,27.78
28.228000,-688.5000,15,105.08,-19.09,27.78
28.238000,-689.3750,15,105.08,-19.09,27.78
28.248000,-690.0000,15,105.08,-19.09,27.78
28.258000,-687.1250,15,105.08,-19.09,27.78
28.268000,-688.1250,15,105.08,-19.09,27.78
28.278000,-688.6250,15,105.08,-19.09,27.78
28.288000,-688.0000,15,105.08,-19.09,27.78
28.298000,-687.3750,15,105.08,-19.09,27.78
28.308000,-687.6250,15,105.08,-19.09,27.78
28.318000,-686.6250,15,105.08,-19.09,27.78
28.328000,-688.3750,15,105.08,-19.09,27.78
28.338000,-688.7500,15,105.08,-19.09,27.78
28.348000,-687.3750,15,105.08,-19.09,27.78
28.358000,-690.5000,15,105.08,-19.09,27.78
28.368000,-690.0000,15,105.08,-19.09,27.78
28.378000,-692.2500,15,105.08,-19.09,27.78
28.388000,-691.8750,15,105.08,-19.09,27.78
28.398000,-692.5000,15,105.08,-19.09,27.78
28.408000,-694.1250,15,105.08,-19.09,27.78
28.418000,-693.0000,15,105.08,-19.09,27.78
28.428000,-693.5000,15,105.08,-19.09,27.78
28.438000,-691.6250,15,105.08,-19.09,27.78
28.448000,-692.7500,15,105.08,-19.09,27.78
28.458000,-692.1250,15,105.08,-19.09,27.78
28.468000,-691.5000,15,105.08,-19.09,27.78
28.478000,-690.3750,15,105.08,-19.09,27.78
28.488000,-691.8750,15,105.08,-19.09,27.78
28.498000,-690.5000,15,105.08,-19.09,27.78
28.508000,-691.5000,15,105.08,-19.09,27.78
28.518000,-690.5000,15,105.08,-19.09,27.78
28.528000,-690.6250,15,105.08,-19.09,27.78
28.538000,-689.5000,15,105.08,-19.09,27.78
28.548000,-690.8750,15,105.08,-19.09,27.78
28.558000,-689.8750,15,105.08,-19.09,27.78
28.568000,-689.2500,15,105.08,-19.09,27.78
28.578000,-691.5000,15,105.08,-19.09,27.78
28.588000,-691.8750,15,105.08,-19.09,27.78
28.598000,-692.2500,15,105.08,-19.09,27.78
28.608000,-691.1250,15,105.08,-19.09,27.78
28.618000,-688.7500,15,105.08,-19.09,27.78
28.628000,-689.3750,15,105.08,-19.09,27.78
28.638000,-689.6250,15,105.08,-19.09,27.78
28.648000,-688.2500,15,105.08,-19.09,27.78
28.658000,-690.0000,15,105.08,-19.09,27.78
28.668000,-689.7500,15,105.08,-19.09,27.78
28.678000,-689.2500,15,105.08,-19.09,27.78
28.688000,-690.3750,15,105.08,-19.09,27.78
28.698000,-688.8750,15,105.08,-19.09,27.78
28.708000,-687.8750,15,105.08,-19.09,27.78
28.718000,-689.2500,15,105.08,-19.09,27.78
28.728000,-688.1250,15,105.08,-19.09,27.78
28.738000,-687.5000,15,105.08,-19.09,27.78
28.748000,-690.3750,15,105.08,-19.09,27.78
28.758000,-689.7500,15,105.08,-19.09,27.78
28.768000,-688.6250,15,105.08,-19.09,27.78
28.778000,-687.7500,15,105.08,-19.09,27.78
28.788000,-689.6250,15,105.08,-19.09,27.78
28.798000,-688.6250,15,105.08,-19.09,27.78
28.808000,-688.0000,15,105.08,-19.09,27.78
28.818000,-687.5000,15,105.08,-19.09,27.78
28.828000,-688.0000,15,105.08,-19.09,27.78
28.838000,-688.6250,15,105.08,-19.09,27.78
28.848000,-686.3750,15,105.08,-19.09,27.78
28.858000,-685.2500,15,105.08,-19.09,27.78
28.868000,-683.3750,15,105.08,-19.09,27.78
28.878000,-682.5000,15,105.08,-19.09,27.78
28.888000,-679.6250,15,105.08,-19.09,27.78
28.898000,-678.8750,15,105.08,-19.09,27.78
28.908000,-678.5000,15,105.08,-19.09,27.78
28.918000,-679.8750,15,105.08,-19.09,27.78
28.928000,-679.8750,15,105.08,-19.09,27.78
28.938000,-680.5000,15,105.08,-19.09,27.78
28.948000,-678.7500,15,105.08,-19.09,27.78
28.958000,-679.5000,15,105.08,-19.09,27.78
28.968000,-679.6250,15,105.08,-19.09,27.78
28.978000,-680.5000,15,105.08,-19.09,27.78
28.988000,-679.8750,15,105.08,-19.09,27.78
28.998000,-679.8750,15,105.08,-19.09,27.78
29.008000,-679.7500,15,105.08,-19.09,27.78
29.018000,-678.7500,15,105.08,-19.09,27.78
29.028000,-678.1250,15,105.08,-19.09,27.78
29.038000,-677.2500,15,105.08,-19.09,27.78
29.048000,-677.2500,15,105.08,-19.09,27.78
29.058000,-676.6250,15,105.08,-19.09,27.78
29.068000,-676.5000,15,105.08,-19.09,27.78
29.078000,-676.6250,15,105.08,-19.09,27.78
29.088000,-675.6250,15,105.08,-19.09,27.78
29.098000,-675.0000,15,105.08,-19.09,27.78
29.108000,-673.6250,15,105.08,-19.09,27.78
29.118000,-674.0000,15,105.08,-19.09,27.78
29.128000,-673.0000,15,105.08,-19.09,27.78
29.138000,-672.2500,15,105.08,-19.09,27.78
29.148000,-671.3750,15,105.08,-19.09,27.78
29.158000,-671.2500,15,105.08,-19.09,27.78
29.168000,-671.6250,15,105.08,-19.09,27.78
29.178000,-670.3750,15,105.08,-19.09,27.78
29.188000,-670.2500,15,105.08,-19.09,27.78
29.198000,-668.7500,15,105.08,-19.09,27.78
29.208000,-668.2500,15,105.08,-19.09,27.78
29.218000,-668.0000,15,105.08,-19.09,27.78
29.228000,-667.1250,15,105.08,-19.09,27.78
29.238000,-667.3750,15,105.08,-19.09,27.78
29.248000,-667.8750,15,105.08,-19.09,27.78
29.258000,-667.0000,15,105.08,-19.09,27.78
29.268000,-666.7500,15,105.08,-19.09,27.78
29.278000,-665.6250,15,105.08,-19.09,27.78
29.288000,-664.6250,15,105.08,-19.09,27.78
29.298000,-665.0000,15,105.08,-19.09,27.78
29.308000,-664.5000,15,105.08,-19.09,27.78
29.318000,-662.1250,15,105.08,-19.09,27.78
29.328000,-663.6250,15,105.08,-19.09,27.78
29.338000,-662.2500,15,105.08,-19.09,27.78
29.348000,-663.0000,15,105.08,-19.09,27.78
29.358000,-661.7500,15,105.08,-19.09,27.78
29.368000,-660.8750,15,105.08,-19.09,27.78
29.378000,-660.6250,15,105.08,-19.09,27.78
29.388000,-661.0000,15,105.08,-19.09,27.78
29.398000,-660.0000,15,105.08,-19.09,27.78
29.408000,-660.1250,15,105.08,-19.09,27.78
29.418000,-656.8750,15,105.08,-19.09,27.78
29.428000,-655.3750,15,105.08,-19.09,27.78
29.438000,-654.8750,15,105.08,-19.09,27.78
29.448000,-652.8750,15,105.08,-19.09,27.78
29.458000,-651.7500,15,105.08,-19.09,27.78
29.468000,-650.6250,15,105.08,-19.09,27.78
29.478000,-650.1250,15,105.08,-19.09,27.78
29.488000,-648.6250,15,105.08,-19.09,27.78
29.498000,-646.2500,15,105.08,-19.09,27.78
29.508000,-642.0000,15,105.08,-19.09,27.78
29.518000,-638.0000,15,105.08,-19.09,27.78
29.528000,-633.7500,15,105.08,-19.09,27.78
29.538000,-626.3750,15,105.08,-19.09,27.78
29.548000,-610.3750,15,105.08,-19.09,27.78
29.558000,-607.8750,15,105.08,-19.09,27.78
29.568000,-606.0000,15,105.08,-19.09,27.78
29.578000,-601.5000,15,105.08,-19.09,27.78
29.588000,-599.0000,15,105.08,-19.09,27.78
29.598000,-594.6250,15,105.08,-19.09,27.78
29.608000,-590.1250,15,105.08,-19.09,27.78
29.618000,-588.8750,15,105.08,-19.09,27.78
29.628000,-587.2500,15,105.08,-19.09,27.78
29.638000,-585.2500,15,105.08,-19.09,27.78
29.648000,-576.6250,15,105.08,-19.09,27.78
29.658000,-574.3750,15,105.08,-19.09,27.78
29.668000,-571.0000,15,105.08,-19.09,27.78
29.678000,-566.1250,15,105.08,-19.09,27.78
29.688000,-555.7500,15,105.08,-19.09,27.78
29.698000,-552.1250,15,105.08,-19.09,27.78
29.708000,-553.5000,15,105.08,-19.09,27.78
29.718000,-482.8750,15,105.08,-19.09,27.78
29.728000,-531.7500,15,105.08,-19.09,27.78
29.738000,-535.0000,15,105.08,-19.09,27.78
29.748000,-531.7500,15,105.08,-19.09,27.78
29.758000,-531.2500,15,105.08,-19.09,27.78
29.768000,-529.1250,15,105.08,-19.09,27.78
29.778000,-527.2500,15,105.08,-19.09,27.78
29.788000,-529.6250,15,105.08,-19.09,27.78
29.798000,-523.6250,15,105.08,-19.09,27.78
29.808000,-522.7500,15,105.08,-19.09,27.78
29.818000,-522.8750,15,105.08,-19.09,27.78
29.828000,-521.5000,15,105.08,-19.09,27.78
29.838000,-520.3750,15,105.08,-19.09,27.78
29.848000,-519.0000,15,105.08,-19.09,27.78
29.858000,-517.3750,15,105.08,-19.09,27.78
29.868000,-517.8750,15,105.08,-19.09,27.78
29.878000,-515.5000,15,105.08,-19.09,27.78
29.888000,-514.6250,15,105.08,-19.09,27.78
29.898000,-514.6250,15,105.08,-19.09,27.78
29.908000,-513.7500,15,105.08,-19.09,27.78
29.918000,-513.6250,15,105.08,-19.09,27.78
29.928000,-512.2500,15,105.08,-19.09,27.78
29.938000,-511.8750,15,105.08,-19.09,27.78
29.948000,-510.6250,15,105.08,-19.09,27.78
29.958000,-509.6250,15,105.08,-19.09,27.78
29.968000,-509.6250,15,105.08,-19.09,27.78
29.978000,-509.2500,15,105.08,-19.09,27.78
29.988000,-508.3750,15,105.08,-19.09,27.78
29.998000,-507.7500,15,105.08,-19.09,27.78
30.008000,-507.7500,15,105.08,-19.09,27.78
30.018000,-506.5000,15,105.08,-19.09,27.78
30.028000,-507.0000,15,105.08,-19.09,27.78
30.038000,-505.7500,15,105.08,-19.09,27.78
30.048000,-506.5000,15,105.08,-19.09,27.78
30.058000,-505.2500,15,105.08,-19.09,27.78
30.068000,-505.5000,15,105.08,-19.09,27.78
30.078000,-505.7500,15,105.08,-19.09,27.78
30.088000,-505.2500,15,105.08,-19.09,27.78
30.098000,-504.5000,15,105.08,-19.09,27.78
30.108000,-504.8750,15,105.08,-19.09,27.78
30.118000,-504.8750,15,105.08,-19.09,27.78
30.128000,-505.0000,15,105.08,-19.09,27.78
30.138000,-504.3750,15,105.08,-19.09,27.78
30.148000,-503.6250,15,105.08,-19.09,27.78
30.158000,-504.0000,15,105.08,-19.09,27.78
30.168000,-502.5000,15,105.08,-19.09,27.78
30.178000,-501.6250,15,105.08,-19.09,27.78
30.188000,-501.6250,15,105.08,-19.09,27.78
30.198000,-500.8750,15,105.08,-19.09,27.78
30.208000,-501.2500,15,105.08,-19.09,27.78
30.218000,-500.3750,15,105.08,-19.09,27.78
30.228000,-500.8750,15,105.08,-19.09,27.78
30.238000,-500.6250,15,105.08,-19.09,27.78
30.248000,-500.5000,15,105.08,-19.09,27.78
30.258000,-499.8750,15,105.08,-19.09,27.78
30.268000,-500.1250,15,105.08,-19.09,27.78
30.278000,-499.8750,15,105.08,-19.09,27.78
30.288000,-500.0000,15,105.08,-19.09,27.78
30.298000,-499.6250,15,105.08,-19.09,27.78
30.308000,-499.3750,15,105.08,-19.09,27.78
30.318000,-499.3750,15,105.08,-19.09,27.78
30.328000,-499.7500,15,105.08,-19.09,27.78
30.338000,-500.0000,17,,-19.33,8.10
30.348000,-499.8750,17,,-19.33,8.10
30.358000,-499.7500,17,,-19.33,8.10
30.368000,-499.8750,17,,-19.33,8.10
30.378000,-499.8750,17,,-19.33,8.10
30.388000,-500.1250,17,,-19.33,8.10
30.398000,-500.1250,17,,-19.33,8.10
30.408000,-499.5000,17,,-19.33,8.10
30.418000,-500.1250,17,,-19.33,8.10
30.428000,-500.2500,17,,-19.33,8.10
30.438000,-499.8750,17,,-19.33,8.10
30.448000,-500.8750,17,,-19.33,8.10
30.458000,-500.7500,17,,-19.33,8.10
30.468000,-501.0000,17,,-19.33,8.10
30.478000,-501.5000,17,,-19.33,8.10
30.488000,-501.1250,17,,-19.33,8.10
30.498000,-501.7500,17,,-19.33,8.10
30.508000,-502.1250,17,,-19.33,8.10
30.518000,-502.6250,17,,-19.33,8.10
30.528000,-502.6250,17,,-19.33,8.10
30.538000,-503.0000,17,,-19.33,8.10
30.548000,-503.8750,17,,-19.33,8.10
30.558000,-503.5000,17,,-19.33,8.10
30.568000,-503.5000,17,,-19.33,8.10
30.578000,-504.1250,17,,-19.33,8.10
30.588000,-504.7500,17,,-19.33,8.10
30.598000,-504.7500,17,,-19.33,8.10
30.608000,-504.8750,17,,-19.33,8.10
30.618000,-505.5000,17,,-19.33,8.10
30.628000,-505.8750,17,,-19.33,8.10
30.638000,-506.2500,17,,-19.33,8.10
30.648000,-506.2500,17,,-19.33,8.10
30.658000,-506.6250,17,,-19.33,8.10
30.668000,-507.2500,17,,-19.33,8.10
30.678000,-507.3750,17,,-19.33,8.10
30.688000,-507.6250,17,,-19.33,8.10
30.698000,-508.0000,17,,-19.33,8.10
30.708000,-508.2500,17,,-19.33,8.10
30.718000,-508.3750,17,,-19.33,8.10
30.728000,-508.6250,17,,-19.33,8.10
30.738000,-509.1250,17,,-19.33,8.10
30.748000,-509.6250,17,,-19.33,8.10
30.758000,-510.1250,17,,-19.33,8.10
30.768000,-510.3750,17,,-19.33,8.10
30.778000,-510.6250,17,,-19.33,8.10
30.788000,-511.0000,17,,-19.33,8.10
30.798000,-512.2500,17,,-19.33,8.10
30.808000,-510.5000,17,,-19.33,8.10
30.818000,-511.8750,17,,-19.33,8.10
30.828000,-513.5000,17,,-19.33,8.10
30.838000,-511.0000,17,,-19.33,8.10
30.848000,-514.3750,17,,-19.33,8.10
30.858000,-512.5000,17,,-19.33,8.10
30.868000,-514.5000,17,,-19.33,8.10
30.878000,-514.2500,17,,-19.33,8.10
30.888000,-514.1250,17,,-19.33,8.10
30.898000,-515.6250,17,,-19.33,8.10
30.908000,-516.5000,17,,-19.33,8.10
30.918000,-516.1250,17,,-19.33,8.10
30.928000,-516.7500,17,,-19.33,8.10
30.938000,-516.6250,17,,-19.33,8.10
30.948000,-517.3750,17,,-19.33,8.10
30.958000,-517.6250,17,,-19.33,8.10
30.968000,-517.7500,17,,-19.33,8.10
30.978000,-518.2500,17,,-19.33,8.10
30.988000,-519.5000,17,,-19.33,8.10
30.998000,-519.3750,17,,-19.33,8.10
31.008000,-519.5000,17,,-19.33,8.10
31.018000,-520.8750,17,,-19.33,8.10
31.028000,-520.5000,17,,-19.33,8.10
31.038000,-520.7500,17,,-19.33,8.10
31.048000,-522.0000,17,,-19.33,8.10
31.058000,-521.7500,17,,-19.33,8.10
31.068000,-522.1250,17,,-19.33,8.10
31.078000,-522.7500,17,,-19.33,8.10
31.088000,-523.1250,17,,-19.33,8.10
31.098000,-524.6250,17,,-19.33,8.10
31.108000,-523.8750,17,,-19.33,8.10
31.118000,-524.2500,17,,-19.33,8.10
31.128000,-525.2500,17,,-19.33,8.10
31.138000,-525.3750,17,,-19.33,8.10
31.148000,-526.0000,17,,-19.33,8.10
31.158000,-527.1250,17,,-19.33,8.10
31.168000,-527.1250,17,,-19.33,8.10
31.178000,-527.1250,17,,-19.33,8.10
31.188000,-528.3750,17,,-19.33,8.10
31.198000,-528.5000,17,,-19.33,8.10
31.208000,-528.8750,17,,-19.33,8.10
31.218000,-529.2500,17,,-19.33,8.10
31.228000,-530.1250,17,,-19.33,8.10
31.238000,-530.3750,17,,-19.33,8.10
31.248000,-530.6250,17,,-19.33,8.10
31.258000,-531.0000,17,,-19.33,8.10
31.268000,-531.6250,17,,-19.33,8.10
31.278000,-532.6250,17,,-19.33,8.10
31.288000,-532.3750,17,,-19.33,8.10
31.298000,-533.2500,17,,-19.33,8.10
31.308000,-533.6250,17,,-19.33,8.10
31.318000,-534.1250,17,,-19.33,8.10
31.328000,-534.3750,17,,-19.33,8.10
31.338000,-535.1250,17,,-19.33,8.10
31.348000,-535.8750,17,,-19.33,8.10
31.358000,-535.7500,17,,-19.33,8.10
31.368000,-535.7500,17,,-19.33,8.10
31.378000,-537.3750,17,,-19.33,8.10
31.388000,-536.8750,17,,-19.33,8.10
31.398000,-537.6250,17,,-19.33,8.10
31.408000,-537.2500,17,,-19.33,8.10
31.418000,-539.0000,17,,-19.33,8.10
31.428000,-539.2500,17,,-19.33,8.10
31.438000,-540.3750,17,,-19.33,8.10
31.448000,-540.2500,17,,-19.33,8.10
31.458000,-541.3750,17,,-19.33,8.10
31.468000,-541.0000,17,,-19.33,8.10
31.478000,-540.7500,17,,-19.33,8.10
31.488000,-541.1250,17,,-19.33,8.10
31.498000,-543.0000,17,,-19.33,8.10
31.508000,-541.7500,17,,-19.33,8.10
31.518000,-542.6250,17,,-19.33,8.10
31.528000,-542.7500,17,,-19.33,8.10
31.538000,-543.5000,17,,-19.33,8.10
31.548000,-543.1250,17,,-19.33,8.10
31.558000,-544.7500,17,,-19.33,8.10
31.568000,-545.1250,17,,-19.33,8.10
31.578000,-545.6250,17,,-19.33,8.10
31.588000,-546.8750,17,,-19.33,8.10
31.598000,-545.8750,17,,-19.33,8.10
31.608000,-548.5000,17,,-19.33,8.10
31.618000,-549.0000,17,,-19.33,8.10
31.628000,-549.7500,17,,-19.33,8.10
31.638000,-548.8750,17,,-19.33,8.10
31.648000,-549.1250,17,,-19.33,8.10
31.658000,-548.7500,17,,-19.33,8.10
31.668000,-549.6250,17,,-19.33,8.10
31.678000,-550.2500,17,,-19.33,8.10
31.688000,-551.0000,17,,-19.33,8.10
31.698000,-550.8750,17,,-19.33,8.10
31.708000,-551.7500,17,,-19.33,8.10
31.718000,-551.8750,17,,-19.33,8.10
31.728000,-553.7500,17,,-19.33,8.10
31.738000,-552.1250,17,,-19.33,8.10
31.748000,-554.5000,17,,-19.33,8.10
31.758000,-553.0000,17,,-19.33,8.10
31.768000,-554.1250,17,,-19.33,8.10
31.778000,-552.8750,17,,-19.33,8.10
31.788000,-555.8750,17,,-19.33,8.10
31.798000,-556.1250,17,,-19.33,8.10
31.808000,-557.5000,17,,-19.33,8.10
31.818000,-556.1250,17,,-19.33,8.10
31.828000,-556.8750,17,,-19.33,8.10
31.838000,-555.1250,17,,-19.33,8.10
31.848000,-557.0000,17,,-19.33,8.10
31.858000,-557.8750,17,,-19.33,8.10
31.868000,-556.6250,17,,-19.33,8.10
31.878000,-556.0000,17,,-19.33,8.10
31.888000,-556.7500,17,,-19.33,8.10
31.898000,-558.5000,17,,-19.33,8.10
31.908000,-557.7500,17,,-19.33,8.10
31.918000,-562.5000,17,,-19.33,8.10
31.928000,-558.0000,17,,-19.33,8.10
31.938000,-559.2500,17,,-19.33,8.10
31.948000,-556.6250,17,,-19.33,8.10
31.958000,-557.5000,17,,-19.33,8.10
31.968000,-562.6250,17,,-19.33,8.10
31.978000,-557.7500,17,,-19.33,8.10
31.988000,-563.6250,17,,-19.33,8.10
31.998000,-560.3750,17,,-19.33,8.10
32.008000,-563.5000,17,,-19.33,8.10
32.018000,-567.6250,17,,-19.33,8.10
32.028000,-560.1250,17,,-19.33,8.10
32.038000,-563.8750,17,,-19.33,8.10
32.048000,-555.2500,17,,-19.33,8.10
32.058000,-542.7500,17,,-19.33,8.10
32.068000,-550.7500,17,,-19.33,8.10
32.078000,-546.5000,17,,-19.33,8.10
32.088000,-566.8750,17,,-19.33,8.10
32.098000,-577.2500,17,,-19.33,8.10
32.108000,-521.1250,17,,-19.33,8.10
32.118000,-568.8750,17,,-19.33,8.10
32.128000,-502.5000,17,,-19.33,8.10
32.138000,-518.0000,17,,-19.33,8.10
32.148000,-585.2500,17,,-19.33,8.10
32.158000,-585.6250,17,,-19.33,8.10
32.168000,-574.7500,17,,-19.33,8.10
32.178000,-591.7500,17,,-19.33,8.10
32.188000,-589.6250,17,,-19.33,8.10
32.198000,-590.7500,17,,-19.33,8.10
32.208000,-589.2500,17,,-19.33,8.10
32.218000,-588.3750,17,,-19.33,8.10
32.228000,-593.6250,17,,-19.33,8.10
32.238000,-592.0000,17,,-19.33,8.10
32.248000,-589.5000,17,,-19.33,8.10
32.258000,-591.3750,17,,-19.33,8.10
32.268000,-593.2500,17,,-19.33,8.10
32.278000,-590.3750,17,,-19.33,8.10
32.288000,-593.6250,17,,-19.33,8.10
32.298000,-592.2500,17,,-19.33,8.10
32.308000,-595.3750,17,,-19.33,8.10
32.318000,-594.0000,17,,-19.33,8.10
32.328000,-595.2500,17,,-19.33,8.10
32.338000,-598.0000,17,,-19.33,8.10
32.348000,-606.7500,17,,-19.33,8.10
32.358000,-612.1250,17,,-19.33,8.10
32.368000,-613.7500,17,,-19.33,8.10
32.378000,-618.8750,17,,-19.33,8.10
32.388000,-619.5000,17,,-19.33,8.10
32.398000,-621.0000,17,,-19.33,8.10
32.408000,-623.1250,17,,-19.33,8.10
32.418000,-623.3750,17,,-19.33,8.10
32.428000,-623.6250,17,,-19.33,8.10
32.438000,-623.6250,17,,-19.33,8.10
32.448000,-624.7500,17,,-19.33,8.10
32.458000,-624.7500,17,,-19.33,8.10
32.468000,-626.5000,17,,-19.33,8.10
32.478000,-626.2500,17,,-19.33,8.10
32.488000,-627.5000,17,,-19.33,8.10
32.498000,-626.7500,17,,-19.33,8.10
32.508000,-626.7500,17,,-19.33,8.10
32.518000,-627.1250,17,,-19.33,8.10
32.528000,-629.3750,17,,-19.33,8.10
32.538000,-628.8750,17,,-19.33,8.10
32.548000,-630.7500,17,,-19.33,8.10
32.558000,-631.6250,17,,-19.33,8.10
32.568000,-632.7500,17,,-19.33,8.10
32.578000,-633.6250,17,,-19.33,8.10
32.588000,-637.0000,17,,-19.33,8.10
32.598000,-638.6250,17,,-19.33,8.10
32.608000,-640.7500,17,,-19.33,8.10
32.618000,-641.6250,17,,-19.33,8.10
32.628000,-642.6250,17,,-19.33,8.10
32.638000,-642.8750,17,,-19.33,8.10
32.648000,-643.6250,17,,-19.33,8.10
32.658000,-644.3750,17,,-19.33,8.10
32.668000,-645.2500,17,,-19.33,8.10
32.678000,-645.5000,17,,-19.33,8.10
32.688000,-645.7500,17,,-19.33,8.10
32.698000,-647.5000,17,,-19.33,8.10
32.708000,-649.3750,17,,-19.33,8.10
32.718000,-651.3750,17,,-19.33,8.10
32.728000,-653.1250,17,,-19.33,8.10
32.738000,-653.8750,17,,-19.33,8.10
32.748000,-653.1250,17,,-19.33,8.10
32.758000,-655.1250,17,,-19.33,8.10
32.768000,-655.1250,17,,-19.33,8.10
32.778000,-654.7500,17,,-19.33,8.10
32.788000,-654.7500,17,,-19.33,8.10
32.798000,-654.7500,17,,-19.33,8.10
32.808000,-655.1250,17,,-19.33,8.10
32.818000,-655.6250,17,,-19.33,8.10
32.828000,-656.2500,17,,-19.33,8.10
32.838000,-656.2500,17,,-19.33,8.10
32.848000,-655.8750,17,,-19.33,8.10
32.858000,-655.5000,17,,-19.33,8.10
32.868000,-656.1250,17,,-19.33,8.10
32.878000,-656.6250,17,,-19.33,8.10
32.888000,-656.8750,17,,-19.33,8.10
32.898000,-658.0000,17,,-19.33,8.10
32.908000,-658.8750,17,,-19.33,8.10
32.918000,-658.5000,17,,-19.33,8.10
32.928000,-659.1250,17,,-19.33,8.10
32.938000,-659.6250,17,,-19.33,8.10
32.948000,-659.7500,17,,-19.33,8.10
32.958000,-659.7500,17,,-19.33,8.10
32.968000,-659.6250,17,,-19.33,8.10
32.978000,-660.1250,17,,-19.33,8.10
32.988000,-662.0000,17,,-19.33,8.10
32.998000,-661.7500,17,,-19.33,8.10
33.008000,-662.1250,17,,-19.33,8.10
33.018000,-662.2500,17,,-19.33,8.10
33.028000,-662.0000,17,,-19.33,8.10
33.038000,-662.6250,17,,-19.33,8.10
33.048000,-664.0000,17,,-19.33,8.10
33.058000,-664.0000,17,,-19.33,8.10
33.068000,-665.2500,17,,-19.33,8.10
33.078000,-665.1250,17,,-19.33,8.10
33.088000,-665.8750,17,,-19.33,8.10
33.098000,-664.8750,17,,-19.33,8.10
33.108000,-664.3750,17,,-19.33,8.10
33.118000,-664.3750,17,,-19.33,8.10
33.128000,-665.3750,17,,-19.33,8.10
33.138000,-666.6250,17,,-19.33,8.10
33.148000,-666.3750,17,,-19.33,8.10
33.158000,-665.5000,17,,-19.33,8.10
33.168000,-665.7500,17,,-19.33,8.10
33.178000,-666.5000,17,,-19.33,8.10
33.188000,-668.1250,17,,-19.33,8.10
33.198000,-668.1250,17,,-19.33,8.10
33.208000,-669.5000,17,,-19.33,8.10
33.218000,-669.2500,17,,-19.33,8.10
33.228000,-669.2500,17,,-19.33,8.10
33.238000,-669.5000,17,,-19.33,8.10
33.248000,-669.1250,17,,-19.33,8.10
33.258000,-668.7500,17,,-19.33,8.10
33.268000,-670.2500,17,,-19.33,8.10
33.278000,-669.8750,17,,-19.33,8.10
33.288000,-669.8750,17,,-19.33,8.10
33.298000,-670.1250,17,,-19.33,8.10
33.308000,-669.8750,17,,-19.33,8.10
33.318000,-670.7500,17,,-19.33,8.10
33.328000,-672.0000,17,,-19.33,8.10
33.338000,-672.5000,17,,-19.33,8.10
33.348000,-672.8750,17,,-19.33,8.10
33.358000,-672.7500,17,,-19.33,8.10
33.368000,-673.8750,17,,-19.33,8.10
33.378000,-673.7500,17,,-19.33,8.10
33.388000,-674.2500,17,,-19.33,8.10
33.398000,-673.7500,17,,-19.33,8.10
33.408000,-675.2500,17,,-19.33,8.10
33.418000,-675.2500,17,,-19.33,8.10
33.428000,-674.2500,17,,-19.33,8.10
33.438000,-676.3750,17,,-19.33,8.10
33.448000,-676.0000,17,,-19.33,8.10
33.458000,-677.6250,17,,-19.33,8.10
33.468000,-677.0000,17,,-19.33,8.10
33.478000,-677.2500,17,,-19.33,8.10
33.488000,-677.0000,17,,-19.33,8.10
33.498000,-677.5000,17,,-19.33,8.10
33.508000,-678.2500,17,,-19.33,8.10
33.518000,-678.7500,17,,-19.33,8.10
33.528000,-679.0000,17,,-19.33,8.10
33.538000,-679.8750,17,,-19.33,8.10
33.548000,-681.2500,17,,-19.33,8.10
33.558000,-681.1250,17,,-19.33,8.10
33.568000,-683.5000,17,,-19.33,8.10
33.578000,-682.6250,17,,-19.33,8.10
33.588000,-684.3750,17,,-19.33,8.10
33.598000,-684.0000,17,,-19.33,8.10
33.608000,-684.3750,17,,-19.33,8.10
33.618000,-684.8750,17,,-19.33,8.10
33.628000,-685.1250,17,,-19.33,8.10
33.638000,-684.7500,17,,-19.33,8.10
33.648000,-685.3750,17,,-19.33,8.10
33.658000,-684.8750,17,,-19.33,8.10
33.668000,-686.1250,17,,-19.33,8.10
33.678000,-686.6250,17,,-19.33,8.10
33.688000,-687.1250,17,,-19.33,8.10
33.698000,-688.6250,17,,-19.33,8.10
33.708000,-689.1250,17,,-19.33,8.10
33.718000,-689.5000,17,,-19.33,8.10
33.728000,-690.0000,17,,-19.33,8.10
33.738000,-689.7500,17,,-19.33,8.10
33.748000,-690.5000,17,,-19.33,8.10
33.758000,-690.3750,17,,-19.33,8.10
33.768000,-690.5000,17,,-19.33,8.10
33.778000,-690.6250,17,,-19.33,8.10
33.788000,-690.8750,17,,-19.33,8.10
33.798000,-691.1250,17,,-19.33,8.10
33.808000,-691.5000,17,,-19.33,8.10
33.818000,-692.2500,17,,-19.33,8.10
33.828000,-691.6250,17,,-19.33,8.10
33.838000,-692.3750,17,,-19.33,8.10
33.848000,-690.8750,17,,-19.33,8.10
33.858000,-692.3750,17,,-19.33,8.10
33.868000,-692.0000,17,,-19.33,8.10
33.878000,-691.5000,17,,-19.33,8.10
33.888000,-692.5000,17,,-19.33,8.10
33.898000,-692.3750,17,,-19.33,8.10
33.908000,-692.2500,17,,-19.33,8.10
33.918000,-693.1250,17,,-19.33,8.10
33.928000,-692.0000,17,,-19.33,8.10
33.938000,-692.1250,17,,-19.33,8.10
33.948000,-692.7500,17,,-19.33,8.10
33.958000,-692.3750,17,,-19.33,8.10
33.968000,-693.0000,17,,-19.33,8.10
33.978000,-692.7500,17,,-19.33,8.10
33.988000,-692.6250,17,,-19.33,8.10
33.998000,-694.2500,17,,-19.33,8.10
34.008000,-693.3750,17,,-19.33,8.10
34.018000,-694.1250,17,,-19.33,8.10
34.028000,-694.0000,17,,-19.33,8.10
34.038000,-694.1250,17,,-19.33,8.10
34.048000,-695.2500,17,,-19.33,8.10
34.058000,-694.8750,17,,-19.33,8.10
34.068000,-695.0000,17,,-19.33,8.10
34.078000,-694.7500,17,,-19.33,8.10
34.088000,-695.2500,17,,-19.33,8.10
34.098000,-695.0000,17,,-19.33,8.10
34.108000,-695.7500,17,,-19.33,8.10
34.118000,-696.3750,17,,-19.33,8.10
34.128000,-695.6250,17,,-19.33,8.10
34.138000,-695.8750,17,,-19.33,8.10
34.148000,-696.1250,17,,-19.33,8.10
34.158000,-696.6250,17,,-19.33,8.10
34.168000,-697.2500,17,,-19.33,8.10
34.178000,-697.3750,17,,-19.33,8.10
34.188000,-697.6250,17,,-19.33,8.10
34.198000,-697.6250,17,,-19.33,8.10
34.208000,-698.3750,17,,-19.33,8.10
34.218000,-698.0000,17,,-19.33,8.10
34.228000,-698.0000,17,,-19.33,8.10
34.238000,-698.1250,17,,-19.33,8.10
34.248000,-698.2500,17,,-19.33,8.10
34.258000,-698.5000,17,,-19.33,8.10
34.268000,-698.6250,17,,-19.33,8.10
34.278000,-699.6250,17,,-19.33,8.10
34.288000,-699.7500,17,,-19.33,8.10
34.298000,-699.1250,17,,-19.33,8.10
34.308000,-700.1250,17,,-19.33,8.10
34.318000,-700.5000,19,24.94,-17.48,16.68
34.328000,-699.6250,19,24.94,-17.48,16.68
34.338000,-700.6250,19,24.94,-17.48,16.68
34.348000,-700.1250,19,24.94,-17.48,16.68
34.358000,-700.8750,19,24.94,-17.48,16.68
34.368000,-700.6250,19,24.94,-17.48,16.68
34.378000,-701.0000,19,24.94,-17.48,16.68
34.388000,-700.7500,19,24.94,-17.48,16.68
34.398000,-702.5000,19,24.94,-17.48,16.68
34.408000,-701.6250,19,24.94,-17.48,16.68
34.418000,-701.8750,19,24.94,-17.48,16.68
34.428000,-702.7500,19,24.94,-17.48,16.68
34.438000,-701.6250,19,24.94,-17.48,16.68
34.448000,-702.2500,19,24.94,-17.48,16.68
34.458000,-701.5000,19,24.94,-17.48,16.68
34.468000,-702.1250,19,24.94,-17.48,16.68
34.478000,-703.0000,19,24.94,-17.48,16.68
34.488000,-703.3750,19,24.94,-17.48,16.68
34.498000,-702.7500,19,24.94,-17.48,16.68
34.508000,-702.8750,19,24.94,-17.48,16.68
34.518000,-703.7500,19,24.94,-17.48,16.68
34.528000,-704.0000,19,24.94,-17.48,16.68
34.538000,-704.0000,19,24.94,-17.48,16.68
34.548000,-705.6250,19,24.94,-17.48,16.68
34.558000,-704.1250,19,24.94,-17.48,16.68
34.568000,-705.7500,19,24.94,-17.48,16.68
34.578000,-705.7500,19,24.94,-17.48,16.68
34.588000,-705.7500,19,24.94,-17.48,16.68
34.598000,-706.5000,19,24.94,-17.48,16.68
34.608000,-705.8750,19,24.94,-17.48,16.68
34.618000,-706.6250,19,24.94,-17.48,16.68
34.628000,-706.8750,19,24.94,-17.48,16.68
34.638000,-707.3750,19,24.94,-17.48,16.68
34.648000,-708.8750,19,24.94,-17.48,16.68
34.658000,-708.0000,19,24.94,-17.48,16.68
34.668000,-707.7500,19,24.94,-17.48,16.68
34.678000,-709.6250,19,24.94,-17.48,16.68
34.688000,-709.0000,19,24.94,-17.48,16.68
34.698000,-709.2500,19,24.94,-17.48,16.68
34.708000,-709.7500,19,24.94,-17.48,16.68
34.718000,-710.0000,19,24.94,-17.48,16.68
34.728000,-710.3750,19,24.94,-17.48,16.68
34.738000,-711.0000,19,24.94,-17.48,16.68
34.748000,-711.3750,19,24.94,-17.48,16.68
34.758000,-712.3750,19,24.94,-17.48,16.68
34.768000,-712.7500,19,24.94,-17.48,16.68
34.778000,-712.3750,19,24.94,-17.48,16.68
34.788000,-712.8750,19,24.94,-17.48,16.68
34.798000,-713.0000,19,24.94,-17.48,16.68
34.808000,-712.7500,19,24.94,-17.48,16.68
34.818000,-713.1250,19,24.94,-17.48,16.68
34.828000,-713.7500,19,24.94,-17.48,16.68
34.838000,-715.1250,19,24.94,-17.48,16.68
34.848000,-715.6250,19,24.94,-17.48,16.68
34.858000,-714.8750,19,24.94,-17.48,16.68
34.868000,-715.3750,19,24.94,-17.48,16.68
34.878000,-716.2500,19,24.94,-17.48,16.68
34.888000,-715.7500,19,24.94,-17.48,16.68
34.898000,-715.6250,19,24.94,-17.48,16.68
34.908000,-715.5000,19,24.94,-17.48,16.68
34.918000,-717.1250,19,24.94,-17.48,16.68
34.928000,-716.8750,19,24.94,-17.48,16.68
34.938000,-717.3750,19,24.94,-17.48,16.68
34.948000,-719.5000,19,24.94,-17.48,16.68
34.958000,-719.5000,19,24.94,-17.48,16.68
34.968000,-718.8750,19,24.94,-17.48,16.68
34.978000,-717.8750,19,24.94,-17.48,16.68
34.988000,-719.3750,19,24.94,-17.48,16.68
34.998000,-719.3750,19,24.94,-17.48,16.68
35.008000,-718.0000,19,24.94,-17.48,16.68
35.018000,-718.8750,19,24.94,-17.48,16.68
35.028000,-719.0000,19,24.94,-17.48,16.68
35.038000,-720.6250,19,24.94,-17.48,16.68
35.048000,-720.1250,19,24.94,-17.48,16.68
35.058000,-720.3750,19,24.94,-17.48,16.68
35.068000,-721.7500,19,24.94,-17.48,16.68
35.078000,-720.7500,19,24.94,-17.48,16.68
35.088000,-722.0000,19,24.94,-17.48,16.68
35.098000,-721.3750,19,24.94,-17.48,16.68
35.108000,-723.1250,19,24.94,-17.48,16.68
35.118000,-723.1250,19,24.94,-17.48,16.68
35.128000,-723.5000,19,24.94,-17.48,16.68
35.138000,-723.8750,19,24.94,-17.48,16.68
35.148000,-724.1250,19,24.94,-17.48,16.68
35.158000,-723.8750,19,24.94,-17.48,16.68
35.168000,-724.1250,19,24.94,-17.48,16.68
35.178000,-724.6250,19,24.94,-17.48,16.68
35.188000,-725.2500,19,24.94,-17.48,16.68
35.198000,-725.1250,19,24.94,-17.48,16.68
