timestamp_s,raw_mV,filtered_mV,is_r_peak,loop,hr_bpm,snr_db
0.000000,-1258.9688,-0.4292,0,2,,-13.99
0.002000,-1258.9688,177.9224,0,2,,-13.99
0.004000,-626.0312,341.6540,0,2,,-13.99
0.006000,-626.0312,478.4894,0,2,,-13.99
0.008000,-626.0312,580.6685,0,2,,-13.99
0.010000,-626.0312,645.8883,0,2,,-13.99
0.012000,-626.0312,677.0327,0,2,,-13.99
0.014000,-626.0312,680.9047,0,2,,-13.99
0.016000,-626.0312,666.4113,0,2,,-13.99
0.018000,-626.0312,642.6953,0,2,,-13.99
0.020000,-626.0312,617.6007,0,2,,-13.99
0.022000,-626.0312,596.6967,0,2,,-13.99
0.024000,-626.0312,582.9177,0,2,,-13.99
0.026000,-626.0312,576.7551,0,2,,-13.99
0.028000,-626.0312,576.8469,0,2,,-13.99
0.030000,-626.0312,580.7783,0,2,,-13.99
0.032000,-626.0312,585.8989,0,2,,-13.99
0.034000,-626.0312,589.9952,0,2,,-13.99
0.036000,-626.0312,591.7095,0,2,,-13.99
0.038000,-626.0312,590.6617,0,2,,-13.99
0.040000,-626.0312,587.3048,0,2,,-13.99
0.042000,-626.0312,582.5955,0,2,,-13.99
0.044000,-626.0312,577.6012,0,2,,-13.99
0.046000,-626.0312,573.1596,0,2,,-13.99
0.048000,-626.0312,569.6784,0,2,,-13.99
0.050000,-626.0312,567.1110,0,2,,-13.99
0.052000,-626.0312,565.0850,0,2,,-13.99
0.054000,-626.0312,563.1167,0,2,,-13.99
0.056000,-626.0312,560.8250,0,2,,-13.99
0.058000,-626.0312,558.0698,0,2,,-13.99
0.060000,-626.0312,554.9746,0,2,,-13.99
0.062000,-626.0312,551.8389,0,2,,-13.99
0.064000,-626.0312,548.9864,0,2,,-13.99
0.066000,-626.0312,546.6149,0,2,,-13.99
0.068000,-626.0312,544.7078,0,2,,-13.99
0.070000,-626.0312,543.0394,0,2,,-13.99
0.072000,-626.0312,541.2683,0,2,,-13.99
0.074000,-626.0312,539.0773,0,2,,-13.99
0.076000,-626.0312,536.3039,0,2,,-13.99
0.078000,-626.0312,533.0081,0,2,,-13.99
0.080000,-626.0312,529.4523,0,2,,-13.99
0.082000,-626.0312,526.0019,0,2,,-13.99
0.084000,-626.0312,522.9855,0,2,,-13.99
0.086000,-626.0312,520.5699,0,2,,-13.99
0.088000,-626.0312,518.6975,0,2,,-13.99
0.090000,-626.0312,517.1098,0,2,,-13.99
0.092000,-626.0312,515.4462,0,2,,-13.99
0.094000,-626.0312,513.3809,0,2,,-13.99
0.096000,-626.0312,510.7445,0,2,,-13.99
0.098000,-626.0312,507.5849,0,2,,-13.99
0.100000,-626.0312,504.1450,0,2,,-13.99
0.102000,-626.0312,500.7684,0,2,,-13.99
0.104000,-626.0312,497.7677,0,2,,-13.99
0.106000,-626.0312,495.3082,0,2,,-13.99
0.108000,-626.0312,493.3485,0,2,,-13.99
0.110000,-626.0312,491.6611,0,2,,-13.99
0.112000,-626.0312,489.9219,0,2,,-13.99
0.114000,-626.0312,487.8342,0,2,,-13.99
0.116000,-626.0312,485.2409,0,2,,-13.99
0.118000,-626.0312,482.1798,0,2,,-13.99
0.120000,-626.0312,478.8656,0,2,,-13.99
0.122000,-626.0312,475.6049,0,2,,-13.99
0.124000,-626.0312,472.6785,0,2,,-13.99
0.126000,-626.0312,470.2356,0,2,,-13.99
0.128000,-626.0312,468.2403,0,2,,-13.99
0.130000,-626.0312,466.4893,0,2,,-13.99
0.132000,-626.0312,464.6920,0,2,,-13.99
0.134000,-626.0312,462.5824,0,2,,-13.99
0.136000,-626.0312,460.0194,0,2,,-13.99
0.138000,-626.0312,457.0369,0,2,,-13.99
0.140000,-626.0312,453.8280,0,2,,-13.99
0.142000,-626.0312,450.6685,0,2,,-13.99
0.144000,-626.0312,447.8109,0,2,,-13.99
0.146000,-626.0312,445.3892,0,2,,-13.99
0.148000,-626.0312,443.3712,0,2,,-13.99
0.150000,-626.0312,441.5736,0,2,,-13.99
0.152000,-626.0312,439.7350,0,2,,-13.99
0.154000,-626.0312,437.6158,0,2,,-13.99
0.156000,-626.0312,435.0885,0,2,,-13.99
0.158000,-626.0312,432.1840,0,2,,-13.99
0.160000,-626.0312,429.0761,0,2,,-13.99
0.162000,-626.0312,426.0131,0,2,,-13.99
0.164000,-626.0312,423.2224,0,2,,-13.99
0.166000,-626.0312,420.8250,0,2,,-13.99
0.168000,-626.0312,418.7921,0,2,,-13.99
0.170000,-626.0312,416.9587,0,2,,-13.99
0.172000,-626.0312,415.0893,0,2,,-13.99
0.174000,-626.0312,412.9680,0,2,,-13.99
0.176000,-626.0312,410.4800,0,2,,-13.99
0.178000,-626.0312,407.6527,0,2,,-13.99
0.180000,-626.0312,404.6427,0,2,,-13.99
0.182000,-626.0312,401.6735,0,2,,-13.99
0.184000,-626.0312,398.9500,0,2,,-13.99
0.186000,-626.0312,396.5814,0,2,,-13.99
0.188000,-626.0312,394.5417,0,2,,-13.99
0.190000,-626.0312,392.6827,0,2,,-13.99
0.192000,-626.0312,390.7922,0,2,,-13.99
0.194000,-626.0312,388.6758,0,2,,-13.99
0.196000,-626.0312,386.2299,0,2,,-13.99
0.198000,-626.0312,383.4790,0,2,,-13.99
0.200000,-626.0312,380.5641,0,2,,-13.99
0.202000,-626.0312,377.6863,0,2,,-13.99
0.204000,-626.0312,375.0304,0,2,,-13.99
0.206000,-626.0312,372.6947,0,2,,-13.99
0.208000,-626.0312,370.6560,0,2,,-13.99
0.210000,-626.0312,368.7810,0,2,,-13.99
0.212000,-626.0312,366.8785,0,2,,-13.99
0.214000,-626.0312,364.7735,0,2,,-13.99
0.216000,-626.0312,362.3725,0,2,,-13.99
0.218000,-626.0312,359.6976,0,2,,-13.99
0.220000,-626.0312,356.8753,0,2,,-13.99
0.222000,-626.0312,354.0871,0,2,,-13.99
0.224000,-626.0312,351.4992,0,2,,-13.99
0.226000,-626.0312,349.2004,0,2,,-13.99
0.228000,-626.0312,347.1699,0,2,,-13.99
0.230000,-626.0312,345.2877,0,2,,-13.99
0.232000,-626.0312,343.3817,0,2,,-13.99
0.234000,-626.0312,341.2942,0,2,,-13.99
0.236000,-626.0312,338.9410,0,2,,-13.99
0.238000,-626.0312,336.3416,0,2,,-13.99
0.240000,-626.0312,333.6102,0,2,,-13.99
0.242000,-626.0312,330.9100,0,2,,-13.99
0.244000,-626.0312,328.3908,0,2,,-13.99
0.246000,-626.0312,326.1326,0,2,,-13.99
0.248000,-626.0312,324.1169,0,2,,-13.99
0.250000,-626.0312,322.2356,0,2,,-13.99
0.252000,-626.0312,320.3339,0,2,,-13.99
0.254000,-626.0312,318.2696,0,2,,-13.99
0.256000,-626.0312,315.9668,0,2,,-13.99
0.258000,-626.0312,313.4430,0,2,,-13.99
0.260000,-626.0312,310.8009,0,2,,-13.99
0.262000,-626.0312,308.1875,0,2,,-13.99
0.264000,-626.0312,305.7377,0,2,,-13.99
0.266000,-626.0312,303.5237,0,2,,-13.99
0.268000,-626.0312,301.5289,0,2,,-13.99
0.270000,-626.0312,299.6560,0,2,,-13.99
0.272000,-626.0312,297.7657,0,2,,-13.99
0.274000,-626.0312,295.7299,0,2,,-13.99
0.276000,-626.0312,293.4801,0,2,,-13.99
0.278000,-626.0312,291.0320,0,2,,-13.99
0.280000,-626.0312,288.4780,0,2,,-13.99
0.282000,-626.0312,285.9504,0,2,,-13.99
0.284000,-626.0312,283.5708,0,2,,-13.99
0.286000,-626.0312,281.4043,0,2,,-13.99
0.288000,-626.0312,279.4361,0,2,,-13.99
0.290000,-626.0312,277.5786,0,2,,-13.99
0.292000,-626.0312,275.7063,0,2,,-13.99
0.294000,-626.0312,273.7038,0,2,,-13.99
0.296000,-626.0312,271.5095,0,2,,-13.99
0.298000,-626.0312,269.1373,0,2,,-13.99
0.300000,-626.0312,266.6704,0,2,,-13.99
0.302000,-626.0312,264.2279,0,2,,-13.99
0.304000,-626.0312,261.9193,0,2,,-13.99
0.306000,-626.0312,259.8035,0,2,,-13.99
0.308000,-626.0312,257.8670,0,2,,-13.99
0.310000,-626.0312,256.0312,0,2,,-13.99
0.312000,-626.0312,254.1829,0,2,,-13.99
0.314000,-626.0312,252.2184,0,2,,-13.99
0.316000,-626.0312,250.0818,0,2,,-13.99
0.318000,-626.0312,247.7859,0,2,,-13.99
0.320000,-626.0312,245.4052,0,2,,-13.99
0.322000,-626.0312,243.0473,0,2,,-13.99
0.324000,-626.0312,240.8107,0,2,,-13.99
0.326000,-626.0312,238.7483,0,2,,-13.99
0.328000,-626.0312,236.8484,0,2,,-13.99
0.330000,-626.0312,235.0400,0,2,,-13.99
0.332000,-626.0312,233.2213,0,2,,-13.99
0.334000,-626.0312,231.2988,0,2,,-13.99
0.336000,-626.0312,229.2222,0,2,,-13.99
0.338000,-626.0312,227.0029,0,2,,-13.99
0.340000,-626.0312,224.7079,0,2,,-13.99
0.342000,-626.0312,222.4340,0,2,,-13.99
0.344000,-626.0312,220.2702,0,2,,-13.99
0.346000,-626.0312,218.2640,0,2,,-13.99
0.348000,-626.0312,216.4050,0,2,,-13.99
0.350000,-626.0312,214.6293,0,2,,-13.99
0.352000,-626.0312,212.8453,0,2,,-13.99
0.354000,-626.0312,210.9686,0,2,,-13.99
0.356000,-626.0312,208.9540,0,2,,-13.99
0.358000,-626.0312,206.8116,0,2,,-13.99
0.360000,-626.0312,204.6018,0,2,,-13.99
0.362000,-626.0312,202.4118,0,2,,-13.99
0.364000,-626.0312,200.3215,0,2,,-13.99
0.366000,-626.0312,198.3740,0,2,,-13.99
0.368000,-626.0312,196.5598,0,2,,-13.99
0.370000,-626.0312,194.8216,0,2,,-13.99
0.372000,-626.0312,193.0768,0,2,,-13.99
0.374000,-626.0312,191.2495,0,2,,-13.99
0.376000,-626.0312,189.2987,0,2,,-13.99
0.378000,-626.0312,187.2336,0,2,,-13.99
0.380000,-626.0312,185.1086,0,2,,-13.99
0.382000,-626.0312,183.0020,0,2,,-13.99
0.384000,-626.0312,180.9860,0,2,,-13.99
0.386000,-626.0312,179.0994,0,2,,-13.99
0.388000,-626.0312,177.3337,0,2,,-13.99
0.390000,-626.0312,175.6373,0,2,,-13.99
0.392000,-626.0312,173.9359,0,2,,-13.99
0.394000,-626.0312,172.1610,0,2,,-13.99
0.396000,-626.0312,170.2758,0,2,,-13.99
0.398000,-626.0312,168.2883,0,2,,-13.99
0.400000,-626.0312,166.2477,0,2,,-13.99
0.402000,-626.0312,164.2243,0,2,,-13.99
0.404000,-626.0312,162.2833,0,2,,-13.99
0.406000,-626.0312,160.4596,0,2,,-13.99
0.408000,-626.0312,158.7456,0,2,,-13.99
0.410000,-626.0312,157.0949,0,2,,-13.99
0.412000,-626.0312,155.4406,0,2,,-13.99
0.414000,-626.0312,153.7209,0,2,,-13.99
0.416000,-626.0312,151.9027,0,2,,-13.99
0.418000,-626.0312,149.9933,0,2,,-13.99
0.420000,-626.0312,148.0366,0,2,,-13.99
0.422000,-626.0312,146.0963,0,2,,-13.99
0.424000,-626.0312,144.2308,0,2,,-13.99
0.426000,-626.0312,142.4718,0,2,,-13.99
0.428000,-626.0312,140.8124,0,2,,-13.99
0.430000,-626.0312,139.2109,0,2,,-13.99
0.432000,-626.0312,137.6069,0,2,,-13.99
0.434000,-626.0312,135.9450,0,2,,-13.99
0.436000,-626.0312,134.1952,0,2,,-13.99
0.438000,-626.0312,132.3640,0,2,,-13.99
0.440000,-626.0312,130.4910,0,2,,-13.99
0.442000,-626.0312,128.6334,0,2,,-13.99
0.444000,-626.0312,126.8440,0,2,,-13.99
0.446000,-626.0312,125.1512,0,2,,-13.99
0.448000,-626.0312,123.5490,0,2,,-13.99
0.450000,-626.0312,121.9997,0,2,,-13.99
0.452000,-626.0312,120.4491,0,2,,-13.99
0.454000,-626.0312,118.8472,0,2,,-13.99
0.456000,-626.0312,117.1669,0,2,,-13.99
0.458000,-626.0312,115.4140,0,2,,-13.99
0.460000,-626.0312,113.6242,0,2,,-13.99
0.462000,-626.0312,111.8491,0,2,,-13.99
0.464000,-626.0312,110.1361,0,2,,-13.99
0.466000,-626.0312,108.5109,0,2,,-13.99
0.468000,-626.0312,106.9680,0,2,,-13.99
0.470000,-626.0312,105.4737,0,2,,-13.99
0.472000,-626.0312,103.9790,0,2,,-13.99
0.474000,-626.0312,102.4390,0,2,,-13.99
0.476000,-626.0312,100.8291,0,2,,-13.99
0.478000,-626.0312,99.1547,0,2,,-13.99
0.480000,-626.0312,97.4478,0,2,,-13.99
0.482000,-626.0312,95.7547,0,2,,-13.99
0.484000,-626.0312,94.1184,0,2,,-13.99
0.486000,-626.0312,92.5618,0,2,,-13.99
0.488000,-626.0312,91.0803,0,2,,-13.99
0.490000,-626.0312,89.6433,0,2,,-13.99
0.492000,-626.0312,88.2068,0,2,,-13.99
0.494000,-626.0312,86.7302,0,2,,-13.99
0.496000,-626.0312,85.1916,0,2,,-13.99
0.498000,-626.0312,83.5955,0,2,,-13.99
0.500000,-626.0312,81.9710,0,2,,-13.99
0.502000,-626.0312,80.3596,0,2,,-13.99
0.504000,-626.0312,78.8000,0,2,,-13.99
0.506000,-626.0312,77.3131,0,2,,-13.99
0.508000,-626.0312,75.8945,0,2,,-13.99
0.510000,-626.0312,74.5168,0,2,,-13.99
0.512000,-626.0312,73.1404,0,2,,-13.99
0.514000,-626.0312,71.7286,0,2,,-13.99
0.516000,-626.0312,70.2618,0,2,,-13.99
0.518000,-626.0312,68.7440,0,2,,-13.99
0.520000,-626.0312,67.2012,0,2,,-13.99
0.522000,-626.0312,65.6710,0,2,,-13.99
0.524000,-626.0312,64.1882,0,2,,-13.99
0.526000,-626.0312,62.7716,0,2,,-13.99
0.528000,-626.0312,61.4172,0,2,,-13.99
0.530000,-626.0312,60.1005,0,2,,-13.99
0.532000,-626.0312,58.7857,0,2,,-13.99
0.534000,-626.0312,57.4399,0,2,,-13.99
0.536000,-626.0312,56.0452,0,2,,-13.99
0.538000,-626.0312,54.6054,0,2,,-13.99
0.540000,-626.0312,53.1438,0,2,,-13.99
0.542000,-626.0312,51.6942,0,2,,-13.99
0.544000,-626.0312,50.2880,0,2,,-13.99
0.546000,-626.0312,48.9421,0,2,,-13.99
0.548000,-626.0312,47.6531,0,2,,-13.99
0.550000,-626.0312,46.3987,0,2,,-13.99
0.552000,-626.0312,45.1468,0,2,,-13.99
0.554000,-626.0312,43.8678,0,2,,-13.99
0.556000,-626.0312,42.5455,0,2,,-13.99
0.558000,-626.0312,41.1833,0,2,,-13.99
0.560000,-626.0312,39.8021,0,2,,-13.99
0.562000,-626.0312,38.4324,0,2,,-13.99
0.564000,-626.0312,37.1025,0,2,,-13.99
0.566000,-626.0312,35.8277,0,2,,-13.99
0.568000,-626.0312,34.6048,0,2,,-13.99
0.570000,-626.0312,33.4138,0,2,,-13.99
0.572000,-626.0312,32.2259,0,2,,-13.99
0.574000,-626.0312,31.0142,0,2,,-13.99
0.576000,-626.0312,29.7643,0,2,,-13.99
0.578000,-626.0312,28.4791,0,2,,-13.99
0.580000,-626.0312,27.1775,0,2,,-13.99
0.582000,-626.0312,25.8870,0,2,,-13.99
0.584000,-626.0312,24.6330,0,2,,-13.99
0.586000,-626.0312,23.4292,0,2,,-13.99
0.588000,-626.0312,22.2729,0,2,,-13.99
0.590000,-626.0312,21.1462,0,2,,-13.99
0.592000,-626.0312,20.0229,0,2,,-13.99
0.594000,-626.0312,18.8789,0,2,,-13.99
0.596000,-626.0312,17.7012,0,2,,-13.99
0.598000,-626.0312,16.4924,0,2,,-13.99
0.600000,-626.0312,15.2696,0,2,,-13.99
0.602000,-626.0312,14.0573,0,2,,-13.99
0.604000,-626.0312,12.8786,0,2,,-13.99
0.606000,-626.0312,11.7458,0,2,,-13.99
0.608000,-626.0312,10.6565,0,2,,-13.99
0.610000,-626.0312,9.5944,0,2,,-13.99
0.612000,-626.0312,8.5362,0,2,,-13.99
0.614000,-626.0312,7.4601,0,2,,-13.99
0.616000,-626.0312,6.3543,0,2,,-13.99
0.618000,-626.0312,5.2211,0,2,,-13.99
0.620000,-626.0312,4.0759,0,2,,-13.99
0.622000,-626.0312,2.9409,0,2,,-13.99
0.624000,-626.0312,1.8367,0,2,,-13.99
0.626000,-626.0312,0.7746,0,2,,-13.99
0.628000,-626.0312,-0.2477,0,2,,-13.99
0.630000,-626.0312,-1.2448,0,2,,-13.99
0.632000,-626.0312,-2.2377,0,2,,-13.99
0.634000,-626.0312,-3.2461,0,2,,-13.99
0.636000,-626.0312,-4.2805,0,2,,-13.99
0.638000,-626.0312,-5.3390,0,2,,-13.99
0.640000,-626.0312,-6.4077,0,2,,-13.99
0.642000,-626.0312,-7.4665,0,2,,-13.99
0.644000,-626.0312,-8.4970,0,2,,-13.99
0.646000,-626.0312,-9.4889,0,2,,-13.99
0.648000,-626.0312,-10.4444,0,2,,-13.99
0.650000,-626.0312,-11.3764,0,2,,-13.99
0.652000,-626.0312,-12.3041,0,2,,-13.99
0.654000,-626.0312,-13.2450,0,2,,-13.99
0.656000,-626.0312,-14.2088,0,2,,-13.99
0.658000,-626.0312,-15.1936,0,2,,-13.99
0.660000,-626.0312,-16.1870,0,2,,-13.99
0.662000,-626.0312,-17.1709,0,2,,-13.99
0.664000,-626.0312,-18.1286,0,2,,-13.99
0.666000,-626.0312,-19.0511,0,2,,-13.99
0.668000,-626.0312,-19.9401,0,2,,-13.99
0.670000,-626.0312,-20.8073,0,2,,-13.99
0.672000,-626.0312,-21.6700,0,2,,-13.99
0.674000,-626.0312,-22.5440,0,2,,-13.99
0.676000,-626.0312,-23.4380,0,2,,-13.99
0.678000,-626.0312,-24.3502,0,2,,-13.99
0.680000,-626.0312,-25.2696,0,2,,-13.99
0.682000,-626.0312,-26.1800,0,2,,-13.99
0.684000,-626.0312,-27.0661,0,2,,-13.99
0.686000,-626.0312,-27.9199,0,2,,-13.99
0.688000,-626.0312,-28.7430,0,2,,-13.99
0.690000,-626.0312,-29.5459,0,2,,-13.99
0.692000,-626.0312,-30.3440,0,2,,-13.99
0.694000,-626.0312,-31.1517,0,2,,-13.99
0.696000,-626.0312,-31.9769,0,2,,-13.99
0.698000,-626.0312,-32.8179,0,2,,-13.99
0.700000,-626.0312,-33.6648,0,2,,-13.99
0.702000,-626.0312,-34.5030,0,2,,-13.99
0.704000,-626.0312,-35.3188,0,2,,-13.99
0.706000,-626.0312,-36.1050,0,2,,-13.99
0.708000,-626.0312,-36.8628,0,2,,-13.99
0.710000,-626.0312,-37.6020,0,2,,-13.99
0.712000,-626.0312,-38.3362,0,2,,-13.99
0.714000,-626.0312,-39.0786,0,2,,-13.99
0.716000,-626.0312,-39.8360,0,2,,-13.99
0.718000,-626.0312,-40.6072,0,2,,-13.99
0.720000,-626.0312,-41.3832,0,2,,-13.99
0.722000,-626.0312,-42.1508,0,2,,-13.99
0.724000,-626.0312,-42.8977,0,2,,-13.99
0.726000,-626.0312,-43.6173,0,2,,-13.99
0.728000,-626.0312,-44.3109,0,2,,-13.99
0.730000,-626.0312,-44.9871,0,2,,-13.99
0.732000,-626.0312,-45.6584,0,2,,-13.99
0.734000,-626.0312,-46.3363,0,2,,-13.99
0.736000,-626.0312,-47.0274,0,2,,-13.99
0.738000,-626.0312,-47.7303,0,2,,-13.99
0.740000,-626.0312,-48.4370,0,2,,-13.99
0.742000,-626.0312,-49.1356,0,2,,-13.99
0.744000,-626.0312,-49.8151,0,2,,-13.99
0.746000,-626.0312,-50.4695,0,2,,-13.99
0.748000,-626.0312,-51.0999,0,2,,-13.99
0.750000,-626.0312,-51.7142,0,2,,-13.99
0.752000,-626.0312,-52.3234,0,2,,-13.99
0.754000,-626.0312,-52.9382,0,2,,-13.99
0.756000,-626.0312,-53.5643,0,2,,-13.99
0.758000,-626.0312,-54.2005,0,2,,-13.99
0.760000,-626.0312,-54.8397,0,2,,-13.99
0.762000,-626.0312,-55.4710,0,2,,-13.99
0.764000,-626.0312,-56.0847,0,2,,-13.99
0.766000,-626.0312,-56.6753,0,2,,-13.99
0.768000,-626.0312,-57.2439,0,2,,-13.99
0.770000,-626.0312,-57.7973,0,2,,-13.99
0.772000,-626.0312,-58.3458,0,2,,-13.99
0.774000,-626.0312,-58.8987,0,2,,-13.99
0.776000,-626.0312,-59.4613,0,2,,-13.99
0.778000,-626.0312,-60.0326,0,2,,-13.99
0.780000,-626.0312,-60.6061,0,2,,-13.99
0.782000,-626.0312,-61.1721,0,2,,-13.99
0.784000,-626.0312,-61.7217,0,2,,-13.99
0.786000,-626.0312,-62.2500,0,2,,-13.99
0.788000,-626.0312,-62.7580,0,2,,-13.99
0.790000,-626.0312,-63.2520,0,2,,-13.99
0.792000,-626.0312,-63.7410,0,2,,-13.99
0.794000,-626.0312,-64.2335,0,2,,-13.99
0.796000,-626.0312,-64.7343,0,2,,-13.99
0.798000,-626.0312,-65.2425,0,2,,-13.99
0.800000,-626.0312,-65.7522,0,2,,-13.99
0.802000,-626.0312,-66.2548,0,2,,-13.99
0.804000,-626.0312,-66.7421,0,2,,-13.99
0.806000,-626.0312,-67.2099,0,2,,-13.99
0.808000,-626.0312,-67.6589,0,2,,-13.99
0.810000,-626.0312,-68.0948,0,2,,-13.99
0.812000,-626.0312,-68.5258,0,2,,-13.99
0.814000,-626.0312,-68.9595,0,2,,-13.99
0.816000,-626.0312,-69.4003,0,2,,-13.99
0.818000,-626.0312,-69.8473,0,2,,-13.99
0.820000,-626.0312,-70.2953,0,2,,-13.99
0.822000,-626.0312,-70.7364,0,2,,-13.99
0.824000,-626.0312,-71.1634,0,2,,-13.99
0.826000,-626.0312,-71.5723,0,2,,-13.99
0.828000,-626.0312,-71.9640,0,2,,-13.99
0.830000,-626.0312,-72.3434,0,2,,-13.99
0.832000,-626.0312,-72.7180,0,2,,-13.99
0.834000,-626.0312,-73.0947,0,2,,-13.99
0.836000,-626.0312,-73.4773,0,2,,-13.99
0.838000,-626.0312,-73.8651,0,2,,-13.99
0.840000,-626.0312,-74.2533,0,2,,-13.99
0.842000,-626.0312,-74.6351,0,2,,-13.99
0.844000,-626.0312,-75.0037,0,2,,-13.99
0.846000,-626.0312,-75.3557,0,2,,-13.99
0.848000,-626.0312,-75.6918,0,2,,-13.99
0.850000,-626.0312,-76.0164,0,2,,-13.99
0.852000,-626.0312,-76.3363,0,2,,-13.99
0.854000,-626.0312,-76.6577,0,2,,-13.99
0.856000,-626.0312,-76.9841,0,2,,-13.99
0.858000,-626.0312,-77.3148,0,2,,-13.99
0.860000,-626.0312,-77.6455,0,2,,-13.99
0.862000,-626.0312,-77.9700,0,2,,-13.99
0.864000,-626.0312,-78.2824,0,2,,-13.99
0.866000,-626.0312,-78.5795,0,2,,-13.99
0.868000,-626.0312,-78.8617,0,2,,-13.99
0.870000,-626.0312,-79.1334,0,2,,-13.99
0.872000,-626.0312,-79.4005,0,2,,-13.99
0.874000,-626.0312,-79.6685,0,2,,-13.99
0.876000,-626.0312,-79.9407,0,2,,-13.99
0.878000,-626.0312,-80.2164,0,2,,-13.99
0.880000,-626.0312,-80.4918,0,2,,-13.99
0.882000,-626.0312,-80.7613,0,2,,-13.99
0.884000,-626.0312,-81.0195,0,2,,-13.99
0.886000,-626.0312,-81.2636,0,2,,-13.99
0.888000,-626.0312,-81.4941,0,2,,-13.99
0.890000,-626.0312,-81.7147,0,2,,-13.99
0.892000,-626.0312,-81.9308,0,2,,-13.99
0.894000,-626.0312,-82.1475,0,2,,-13.99
0.896000,-626.0312,-82.3675,0,2,,-13.99
0.898000,-626.0312,-82.5905,0,2,,-13.99
0.900000,-626.0312,-82.8129,0,2,,-13.99
0.902000,-626.0312,-83.0296,0,2,,-13.99
0.904000,-626.0312,-83.2359,0,2,,-13.99
0.906000,-626.0312,-83.4291,0,2,,-13.99
0.908000,-626.0312,-83.6098,0,2,,-13.99
0.910000,-626.0312,-83.7813,0,2,,-13.99
0.912000,-626.0312,-83.9485,0,2,,-13.99
0.914000,-626.0312,-84.1158,0,2,,-13.99
0.916000,-626.0312,-84.2859,0,2,,-13.99
0.918000,-626.0312,-84.4584,0,2,,-13.99
0.920000,-626.0312,-84.6300,0,2,,-13.99
0.922000,-626.0312,-84.7963,0,2,,-13.99
0.924000,-626.0312,-84.9529,0,2,,-13.99
0.926000,-626.0312,-85.0975,0,2,,-13.99
0.928000,-626.0312,-85.2305,0,2,,-13.99
0.930000,-626.0312,-85.3549,0,2,,-13.99
0.932000,-626.0312,-85.4752,0,2,,-13.99
0.934000,-626.0312,-85.5953,0,2,,-13.99
0.936000,-626.0312,-85.7177,0,2,,-13.99
0.938000,-626.0312,-85.8419,0,2,,-13.99
0.940000,-626.0312,-85.9652,0,2,,-13.99
0.942000,-626.0312,-86.0834,0,2,,-13.99
0.944000,-626.0312,-86.1926,0,2,,-13.99
0.946000,-626.0312,-86.2907,0,2,,-13.99
0.948000,-626.0312,-86.3782,0,2,,-13.99
0.950000,-626.0312,-86.4577,0,2,,-13.99
0.952000,-626.0312,-86.5331,0,2,,-13.99
0.954000,-626.0312,-86.6083,0,2,,-13.99
0.956000,-626.0312,-86.6852,0,2,,-13.99
0.958000,-626.0312,-86.7636,0,2,,-13.99
0.960000,-626.0312,-86.8408,0,2,,-13.99
0.962000,-626.0312,-86.9133,0,2,,-13.99
0.964000,-626.0312,-86.9774,0,2,,-13.99
0.966000,-626.0312,-87.0314,0,2,,-13.99
0.968000,-626.0312,-87.0755,0,2,,-13.99
0.970000,-626.0312,-87.1122,0,2,,-13.99
0.972000,-626.0312,-87.1451,0,2,,-13.99
0.974000,-626.0312,-87.1774,0,2,,-13.99
0.976000,-626.0312,-87.2112,0,2,,-13.99
0.978000,-626.0312,-87.2460,0,2,,-13.99
0.980000,-626.0312,-87.2797,0,2,,-13.99
0.982000,-626.0312,-87.3088,0,2,,-13.99
0.984000,-626.0312,-87.3302,0,2,,-13.99
0.986000,-626.0312,-87.3423,0,2,,-13.99
0.988000,-626.0312,-87.3453,0,2,,-13.99
0.990000,-626.0312,-87.3414,0,2,,-13.99
0.992000,-626.0312,-87.3339,0,2,,-13.99
0.994000,-626.0312,-87.3258,0,2,,-13.99
0.996000,-626.0312,-87.3187,0,2,,-13.99
0.998000,-626.0312,-87.3124,0,2,,-13.99
1.000000,-626.0312,-87.3049,0,2,,-13.99
1.002000,-626.0312,-87.2931,0,2,,-13.99
1.004000,-626.0312,-87.2742,0,2,,-13.99
1.006000,-626.0312,-87.2467,0,2,,-13.99
1.008000,-626.0312,-87.2109,0,2,,-13.99
1.010000,-626.0312,-87.1687,0,2,,-13.99
1.012000,-626.0312,-87.1230,0,2,,-13.99
1.014000,-626.0312,-87.0767,0,2,,-13.99
1.016000,-626.0312,-87.0311,0,2,,-13.99
1.018000,-626.0312,-86.9860,0,2,,-13.99
1.020000,-626.0312,-86.9397,0,2,,-13.99
1.022000,-626.0312,-86.8894,0,2,,-13.99
1.024000,-626.0312,-86.8326,0,2,,-13.99
1.026000,-626.0312,-86.7679,0,2,,-13.99
1.028000,-626.0312,-86.6955,0,2,,-13.99
1.030000,-626.0312,-86.6173,0,2,,-13.99
1.032000,-626.0312,-86.5358,0,2,,-13.99
1.034000,-626.0312,-86.4535,0,2,,-13.99
1.036000,-626.0312,-86.3717,0,2,,-13.99
1.038000,-626.0312,-86.2904,0,2,,-13.99
1.040000,-626.0312,-86.2077,0,2,,-13.99
1.042000,-626.0312,-86.1214,0,2,,-13.99
1.044000,-626.0312,-86.0290,0,2,,-13.99
1.046000,-626.0312,-85.9294,0,2,,-13.99
1.048000,-626.0312,-85.8228,0,2,,-13.99
1.050000,-626.0312,-85.7108,0,2,,-13.99
1.052000,-626.0312,-85.5957,0,2,,-13.99
1.054000,-626.0312,-85.4798,0,2,,-13.99
1.056000,-626.0312,-85.3643,0,2,,-13.99
1.058000,-626.0312,-85.2490,0,2,,-13.99
1.060000,-626.0312,-85.1324,0,2,,-13.99
1.062000,-626.0312,-85.0124,0,2,,-13.99
1.064000,-626.0312,-84.8869,0,2,,-13.99
1.066000,-626.0312,-84.7547,0,2,,-13.99
1.068000,-626.0312,-84.6162,0,2,,-13.99
1.070000,-626.0312,-84.4727,0,2,,-13.99
1.072000,-626.0312,-84.3263,0,2,,-13.99
1.074000,-626.0312,-84.1791,0,2,,-13.99
1.076000,-626.0312,-84.0322,0,2,,-13.99
1.078000,-626.0312,-83.8853,0,2,,-13.99
1.080000,-626.0312,-83.7373,0,2,,-13.99
1.082000,-626.0312,-83.5860,0,2,,-13.99
1.084000,-626.0312,-83.4297,0,2,,-13.99
1.086000,-626.0312,-83.2674,0,2,,-13.99
1.088000,-626.0312,-83.0992,0,2,,-13.99
1.090000,-626.0312,-82.9265,0,2,,-13.99
1.092000,-626.0312,-82.7511,0,2,,-13.99
1.094000,-626.0312,-82.5749,0,2,,-13.99
1.096000,-626.0312,-82.3989,0,2,,-13.99
1.098000,-626.0312,-82.2229,0,2,,-13.99
1.100000,-626.0312,-82.0457,0,2,,-13.99
1.102000,-626.0312,-81.8656,0,2,,-13.99
1.104000,-626.0312,-81.6809,0,2,,-13.99
1.106000,-626.0312,-81.4908,0,2,,-13.99
1.108000,-626.0312,-81.2952,0,2,,-13.99
1.110000,-626.0312,-81.0956,0,2,,-13.99
1.112000,-626.0312,-80.8935,0,2,,-13.99
1.114000,-626.0312,-80.6906,0,2,,-13.99
1.116000,-626.0312,-80.4878,0,2,,-13.99
1.118000,-626.0312,-80.2849,0,2,,-13.99
1.120000,-626.0312,-80.0810,0,2,,-13.99
1.122000,-626.0312,-79.8745,0,2,,-13.99
1.124000,-626.0312,-79.6637,0,2,,-13.99
1.126000,-626.0312,-79.4480,0,2,,-13.99
1.128000,-626.0312,-79.2274,0,2,,-13.99
1.130000,-626.0312,-79.0031,0,2,,-13.99
1.132000,-626.0312,-78.7765,0,2,,-13.99
1.134000,-626.0312,-78.5491,0,2,,-13.99
1.136000,-626.0312,-78.3219,0,2,,-13.99
1.138000,-626.0312,-78.0946,0,2,,-13.99
1.140000,-626.0312,-77.8663,0,2,,-13.99
1.142000,-626.0312,-77.6355,0,2,,-13.99
1.144000,-626.0312,-77.4010,0,2,,-13.99
1.146000,-626.0312,-77.1620,0,2,,-13.99
1.148000,-626.0312,-76.9186,0,2,,-13.99
1.150000,-626.0312,-76.6718,0,2,,-13.99
1.152000,-626.0312,-76.4230,0,2,,-13.99
1.154000,-626.0312,-76.1735,0,2,,-13.99
1.156000,-626.0312,-75.9240,0,2,,-13.99
1.158000,-626.0312,-75.6745,0,2,,-13.99
1.160000,-626.0312,-75.4241,0,2,,-13.99
1.162000,-626.0312,-75.1716,0,2,,-13.99
1.164000,-626.0312,-74.9156,0,2,,-13.99
1.166000,-626.0312,-74.6555,0,2,,-13.99
1.168000,-626.0312,-74.3915,0,2,,-13.99
1.170000,-626.0312,-74.1245,0,2,,-13.99
1.172000,-626.0312,-73.8556,0,2,,-13.99
1.174000,-626.0312,-73.5861,0,2,,-13.99
1.176000,-626.0312,-73.3167,0,2,,-13.99
1.178000,-626.0312,-73.0473,0,2,,-13.99
1.180000,-626.0312,-72.7770,0,2,,-13.99
1.182000,-626.0312,-72.5048,0,2,,-13.99
1.184000,-626.0312,-72.2296,0,2,,-13.99
1.186000,-626.0312,-71.9507,0,2,,-13.99
1.188000,-626.0312,-71.6683,0,2,,-13.99
1.190000,-626.0312,-71.3832,0,2,,-13.99
1.192000,-626.0312,-71.0964,0,2,,-13.99
1.194000,-626.0312,-70.8091,0,2,,-13.99
1.196000,-626.0312,-70.5219,0,2,,-13.99
1.198000,-626.0312,-70.2347,0,2,,-13.99
1.200000,-626.0312,-69.9469,0,2,,-13.99
1.202000,-626.0312,-69.6572,0,2,,-13.99
1.204000,-626.0312,-69.3649,0,2,,-13.99
1.206000,-626.0312,-69.0694,0,2,,-13.99
1.208000,-626.0312,-68.7707,0,2,,-13.99
1.210000,-626.0312,-68.4696,0,2,,-13.99
1.212000,-626.0312,-68.1671,0,2,,-13.99
1.214000,-626.0312,-67.8641,0,2,,-13.99
1.216000,-626.0312,-67.5613,0,2,,-13.99
1.218000,-626.0312,-67.2585,0,2,,-13.99
1.220000,-626.0312,-66.9552,0,2,,-13.99
1.222000,-626.0312,-66.6503,0,2,,-13.99
1.224000,-626.0312,-66.3431,0,2,,-13.99
1.226000,-626.0312,-66.0330,0,2,,-13.99
1.228000,-626.0312,-65.7201,0,2,,-13.99
1.230000,-626.0312,-65.4051,0,2,,-13.99
1.232000,-626.0312,-65.0888,0,2,,-13.99
1.234000,-626.0312,-64.7723,0,2,,-13.99
1.236000,-626.0312,-64.4559,0,2,,-13.99
1.238000,-626.0312,-64.1396,0,2,,-13.99
1.240000,-626.0312,-63.8229,0,2,,-13.99
1.242000,-626.0312,-63.5049,0,2,,-13.99
1.244000,-626.0312,-63.1848,0,2,,-13.99
1.246000,-626.0312,-62.8622,0,2,,-13.99
1.248000,-626.0312,-62.5371,0,2,,-13.99
1.250000,-626.0312,-62.2102,0,2,,-13.99
1.252000,-626.0312,-61.8823,0,2,,-13.99
1.254000,-626.0312,-61.5542,0,2,,-13.99
1.256000,-626.0312,-61.2263,0,2,,-13.99
1.258000,-626.0312,-60.8985,0,2,,-13.99
1.260000,-626.0312,-60.5705,0,2,,-13.99
1.262000,-626.0312,-60.2413,0,2,,-13.99
1.264000,-626.0312,-59.9104,0,2,,-13.99
1.266000,-626.0312,-59.5772,0,2,,-13.99
1.268000,-626.0312,-59.2420,0,2,,-13.99
1.270000,-626.0312,-58.9052,0,2,,-13.99
1.272000,-626.0312,-58.5676,0,2,,-13.99
1.274000,-626.0312,-58.2298,0,2,,-13.99
1.276000,-626.0312,-57.8923,0,2,,-13.99
1.278000,-626.0312,-57.5551,0,2,,-13.99
1.280000,-626.0312,-57.2177,0,2,,-13.99
1.282000,-626.0312,-56.8793,0,2,,-13.99
1.284000,-626.0312,-56.5395,0,2,,-13.99
1.286000,-626.0312,-56.1978,0,2,,-13.99
1.288000,-626.0312,-55.8543,0,2,,-13.99
1.290000,-626.0312,-55.5095,0,2,,-13.99
1.292000,-626.0312,-55.1640,0,2,,-13.99
1.294000,-626.0312,-54.8185,0,2,,-13.99
1.296000,-626.0312,-54.4733,0,2,,-13.99
1.298000,-626.0312,-54.1285,0,2,,-13.99
1.300000,-626.0312,-53.7836,0,2,,-13.99
1.302000,-626.0312,-53.4381,0,2,,-13.99
1.304000,-626.0312,-53.0912,0,2,,-13.99
1.306000,-626.0312,-52.7428,0,2,,-13.99
1.308000,-626.0312,-52.3929,0,2,,-13.99
1.310000,-626.0312,-52.0418,0,2,,-13.99
1.312000,-626.0312,-51.6903,0,2,,-13.99
1.314000,-626.0312,-51.3389,0,2,,-13.99
1.316000,-626.0312,-50.9879,0,2,,-13.99
1.318000,-626.0312,-50.6374,0,2,,-13.99
1.320000,-626.0312,-50.2869,0,2,,-13.99
1.322000,-626.0312,-49.9358,0,2,,-13.99
1.324000,-626.0312,-49.5838,0,2,,-13.99
1.326000,-626.0312,-49.2304,0,2,,-13.99
1.328000,-626.0312,-48.8758,0,2,,-13.99
1.330000,-626.0312,-48.5204,0,2,,-13.99
1.332000,-626.0312,-48.1646,0,2,,-13.99
1.334000,-626.0312,-47.8090,0,2,,-13.99
1.336000,-626.0312,-47.4540,0,2,,-13.99
1.338000,-626.0312,-47.0994,0,2,,-13.99
1.340000,-626.0312,-46.7450,0,2,,-13.99
1.342000,-626.0312,-46.3903,0,2,,-13.99
1.344000,-626.0312,-46.0348,0,2,,-13.99
1.346000,-626.0312,-45.6783,0,2,,-13.99
1.348000,-626.0312,-45.3207,0,2,,-13.99
1.350000,-626.0312,-44.9625,0,2,,-13.99
1.352000,-626.0312,-44.6041,0,2,,-13.99
1.354000,-626.0312,-44.2461,0,2,,-13.99
1.356000,-626.0312,-43.8887,0,2,,-13.99
1.358000,-626.0312,-43.5318,0,2,,-13.99
1.360000,-626.0312,-43.1752,0,2,,-13.99
1.362000,-626.0312,-42.8185,0,2,,-13.99
1.364000,-626.0312,-42.4612,0,2,,-13.99
1.366000,-626.0312,-42.1030,0,2,,-13.99
1.368000,-626.0312,-41.7441,0,2,,-13.99
1.370000,-626.0312,-41.3848,0,2,,-13.99
1.372000,-626.0312,-41.0255,0,2,,-13.99
1.374000,-626.0312,-40.6666,0,2,,-13.99
1.376000,-626.0312,-40.3083,0,2,,-13.99
1.378000,-626.0312,-39.9508,0,2,,-13.99
1.380000,-626.0312,-39.5936,0,2,,-13.99
1.382000,-626.0312,-39.2364,0,2,,-13.99
1.384000,-626.0312,-38.8789,0,2,,-13.99
1.386000,-626.0312,-38.5207,0,2,,-13.99
1.388000,-626.0312,-38.1621,0,2,,-13.99
1.390000,-626.0312,-37.8032,0,2,,-13.99
1.392000,-626.0312,-37.4444,0,2,,-13.99
1.394000,-626.0312,-37.0861,0,2,,-13.99
1.396000,-626.0312,-36.7286,0,2,,-13.99
1.398000,-626.0312,-36.3719,0,2,,-13.99
1.400000,-626.0312,-36.0156,0,2,,-13.99
1.402000,-626.0312,-35.6595,0,2,,-13.99
1.404000,-626.0312,-35.3033,0,2,,-13.99
1.406000,-626.0312,-34.9466,0,2,,-13.99
1.408000,-626.0312,-34.5896,0,2,,-13.99
1.410000,-626.0312,-34.2326,0,2,,-13.99
1.412000,-626.0312,-33.8758,0,2,,-13.99
1.414000,-626.0312,-33.5196,0,2,,-13.99
1.416000,-626.0312,-33.1643,0,2,,-13.99
1.418000,-626.0312,-32.8098,0,2,,-13.99
1.420000,-626.0312,-32.4560,0,2,,-13.99
1.422000,-626.0312,-32.1024,0,2,,-13.99
1.424000,-626.0312,-31.7488,0,2,,-13.99
1.426000,-626.0312,-31.3950,0,2,,-13.99
1.428000,-626.0312,-31.0411,0,2,,-13.99
1.430000,-626.0312,-30.6873,0,2,,-13.99
1.432000,-626.0312,-30.3339,0,2,,-13.99
1.434000,-626.0312,-29.9812,0,2,,-13.99
1.436000,-626.0312,-29.6294,0,2,,-13.99
1.438000,-626.0312,-29.2786,0,2,,-13.99
1.440000,-626.0312,-28.9284,0,2,,-13.99
1.442000,-626.0312,-28.5787,0,2,,-13.99
1.444000,-626.0312,-28.2291,0,2,,-13.99
1.446000,-626.0312,-27.8795,0,2,,-13.99
1.448000,-626.0312,-27.5300,0,2,,-13.99
1.450000,-626.0312,-27.1807,0,2,,-13.99
1.452000,-626.0312,-26.8320,0,2,,-13.99
1.454000,-626.0312,-26.4840,0,2,,-13.99
1.456000,-626.0312,-26.1371,0,2,,-13.99
1.458000,-626.0312,-25.7911,0,2,,-13.99
1.460000,-626.0312,-25.4459,0,2,,-13.99
1.462000,-626.0312,-25.1013,0,2,,-13.99
1.464000,-626.0312,-24.7570,0,2,,-13.99
1.466000,-626.0312,-24.4129,0,2,,-13.99
1.468000,-626.0312,-24.0690,0,2,,-13.99
1.470000,-626.0312,-23.7254,0,2,,-13.99
1.472000,-626.0312,-23.3825,0,2,,-13.99
1.474000,-626.0312,-23.0405,0,2,,-13.99
1.476000,-626.0312,-22.6996,0,2,,-13.99
1.478000,-626.0312,-22.3597,0,2,,-13.99
1.480000,-626.0312,-22.0207,0,2,,-13.99
1.482000,-626.0312,-21.6824,0,2,,-13.99
1.484000,-626.0312,-21.3445,0,2,,-13.99
1.486000,-626.0312,-21.0070,0,2,,-13.99
1.488000,-626.0312,-20.6698,0,2,,-13.99
1.490000,-626.0312,-20.3331,0,2,,-13.99
1.492000,-626.0312,-19.9972,0,2,,-13.99
1.494000,-626.0312,-19.6623,0,2,,-13.99
1.496000,-626.0312,-19.3285,0,2,,-13.99
1.498000,-626.0312,-18.9958,0,2,,-13.99
1.500000,-626.0312,-18.6641,0,2,,-13.99
1.502000,-626.0312,-18.3332,0,2,,-13.99
1.504000,-626.0312,-18.0028,0,2,,-13.99
1.506000,-626.0312,-17.6729,0,2,,-13.99
1.508000,-626.0312,-17.3435,0,2,,-13.99
1.510000,-626.0312,-17.0148,0,2,,-13.99
1.512000,-626.0312,-16.6868,0,2,,-13.99
1.514000,-626.0312,-16.3600,0,2,,-13.99
1.516000,-626.0312,-16.0344,0,2,,-13.99
1.518000,-626.0312,-15.7099,0,2,,-13.99
1.520000,-626.0312,-15.3865,0,2,,-13.99
1.522000,-626.0312,-15.0639,0,2,,-13.99
1.524000,-626.0312,-14.7421,0,2,,-13.99
1.526000,-626.0312,-14.4209,0,2,,-13.99
1.528000,-626.0312,-14.1002,0,2,,-13.99
1.530000,-626.0312,-13.7803,0,2,,-13.99
1.532000,-626.0312,-13.4614,0,2,,-13.99
1.534000,-626.0312,-13.1436,0,2,,-13.99
1.536000,-626.0312,-12.8271,0,2,,-13.99
1.538000,-626.0312,-12.5117,0,2,,-13.99
1.540000,-626.0312,-12.1976,0,2,,-13.99
1.542000,-626.0312,-11.8843,0,2,,-13.99
1.544000,-626.0312,-11.5719,0,2,,-13.99
1.546000,-626.0312,-11.2602,0,2,,-13.99
1.548000,-626.0312,-10.9492,0,2,,-13.99
1.550000,-626.0312,-10.6391,0,2,,-13.99
1.552000,-626.0312,-10.3300,0,2,,-13.99
1.554000,-626.0312,-10.0221,0,2,,-13.99
1.556000,-626.0312,-9.7155,0,2,,-13.99
1.558000,-626.0312,-9.4102,0,2,,-13.99
1.560000,-626.0312,-9.1061,0,2,,-13.99
1.562000,-626.0312,-8.8031,0,2,,-13.99
1.564000,-626.0312,-8.5009,0,2,,-13.99
1.566000,-626.0312,-8.1995,0,2,,-13.99
1.568000,-626.0312,-7.8990,0,2,,-13.99
1.570000,-626.0312,-7.5995,0,2,,-13.99
1.572000,-626.0312,-7.3010,0,2,,-13.99
1.574000,-626.0312,-7.0038,0,2,,-13.99
1.576000,-626.0312,-6.7079,0,2,,-13.99
1.578000,-626.0312,-6.4134,0,2,,-13.99
1.580000,-626.0312,-6.1202,0,2,,-13.99
1.582000,-626.0312,-5.8280,0,2,,-13.99
1.584000,-626.0312,-5.5368,0,2,,-13.99
1.586000,-626.0312,-5.2466,0,2,,-13.99
1.588000,-626.0312,-4.9573,0,2,,-13.99
1.590000,-626.0312,-4.6690,0,2,,-13.99
1.592000,-626.0312,-4.3819,0,2,,-13.99
1.594000,-626.0312,-4.0960,0,2,,-13.99
1.596000,-626.0312,-3.8116,0,2,,-13.99
1.598000,-626.0312,-3.5286,0,2,,-13.99
1.600000,-626.0312,-3.2468,0,2,,-13.99
1.602000,-626.0312,-2.9663,0,2,,-13.99
1.604000,-626.0312,-2.6868,0,2,,-13.99
1.606000,-626.0312,-2.4083,0,2,,-13.99
1.608000,-626.0312,-2.1308,0,2,,-13.99
1.610000,-626.0312,-1.8544,0,2,,-13.99
1.612000,-626.0312,-1.5793,0,2,,-13.99
1.614000,-626.0312,-1.3055,0,2,,-13.99
1.616000,-626.0312,-1.0331,0,2,,-13.99
1.618000,-626.0312,-0.7621,0,2,,-13.99
1.620000,-626.0312,-0.4925,0,2,,-13.99
1.622000,-626.0312,-0.2242,0,2,,-13.99
1.624000,-626.0312,0.0431,0,2,,-13.99
1.626000,-626.0312,0.3092,0,2,,-13.99
1.628000,-626.0312,0.5743,0,2,,-13.99
1.630000,-626.0312,0.8382,0,2,,-13.99
1.632000,-626.0312,1.1009,0,2,,-13.99
1.634000,-626.0312,1.3621,0,2,,-13.99
1.636000,-626.0312,1.6219,0,2,,-13.99
1.638000,-626.0312,1.8802,0,2,,-13.99
1.640000,-626.0312,2.1372,0,2,,-13.99
1.642000,-626.0312,2.3928,0,2,,-13.99
1.644000,-626.0312,2.6473,0,2,,-13.99
1.646000,-626.0312,2.9006,0,2,,-13.99
1.648000,-626.0312,3.1528,0,2,,-13.99
1.650000,-626.0312,3.4038,0,2,,-13.99
1.652000,-626.0312,3.6534,0,2,,-13.99
1.654000,-626.0312,3.9016,0,2,,-13.99
1.656000,-626.0312,4.1484,0,2,,-13.99
1.658000,-626.0312,4.3936,0,2,,-13.99
1.660000,-626.0312,4.6374,0,2,,-13.99
1.662000,-626.0312,4.8800,0,2,,-13.99
1.664000,-626.0312,5.1212,0,2,,-13.99
1.666000,-626.0312,5.3613,0,2,,-13.99
1.668000,-626.0312,5.6002,0,2,,-13.99
1.670000,-626.0312,5.8378,0,2,,-13.99
1.672000,-626.0312,6.0740,0,2,,-13.99
1.674000,-626.0312,6.3088,0,2,,-13.99
1.676000,-626.0312,6.5421,0,2,,-13.99
1.678000,-626.0312,6.7739,0,2,,-13.99
1.680000,-626.0312,7.0042,0,2,,-13.99
1.682000,-626.0312,7.2332,0,2,,-13.99
1.684000,-626.0312,7.4609,0,2,,-13.99
1.686000,-626.0312,7.6874,0,2,,-13.99
1.688000,-626.0312,7.9126,0,2,,-13.99
1.690000,-626.0312,8.1365,0,2,,-13.99
1.692000,-626.0312,8.3590,0,2,,-13.99
1.694000,-626.0312,8.5800,0,2,,-13.99
1.696000,-626.0312,8.7996,0,2,,-13.99
1.698000,-626.0312,9.0176,0,2,,-13.99
1.700000,-626.0312,9.2342,0,2,,-13.99
1.702000,-626.0312,9.4493,0,2,,-13.99
1.704000,-626.0312,9.6632,0,2,,-13.99
1.706000,-626.0312,9.8757,0,2,,-13.99
1.708000,-626.0312,10.0870,0,2,,-13.99
1.710000,-626.0312,10.2970,0,2,,-13.99
1.712000,-626.0312,10.5055,0,2,,-13.99
1.714000,-626.0312,10.7125,0,2,,-13.99
1.716000,-626.0312,10.9181,0,2,,-13.99
1.718000,-626.0312,11.1221,0,2,,-13.99
1.720000,-626.0312,11.3246,0,2,,-13.99
1.722000,-626.0312,11.5257,0,2,,-13.99
1.724000,-626.0312,11.7255,0,2,,-13.99
1.726000,-626.0312,11.9239,0,2,,-13.99
1.728000,-626.0312,12.1211,0,2,,-13.99
1.730000,-626.0312,12.3169,0,2,,-13.99
1.732000,-626.0312,12.5112,0,2,,-13.99
1.734000,-626.0312,12.7041,0,2,,-13.99
1.736000,-626.0312,12.8954,0,2,,-13.99
1.738000,-626.0312,13.0853,0,2,,-13.99
1.740000,-626.0312,13.2736,0,2,,-13.99
1.742000,-626.0312,13.4605,0,2,,-13.99
1.744000,-626.0312,13.6460,0,2,,-13.99
1.746000,-626.0312,13.8302,0,2,,-13.99
1.748000,-626.0312,14.0131,0,2,,-13.99
1.750000,-626.0312,14.1946,0,2,,-13.99
1.752000,-626.0312,14.3747,0,2,,-13.99
1.754000,-626.0312,14.5532,0,2,,-13.99
1.756000,-626.0312,14.7303,0,2,,-13.99
1.758000,-626.0312,14.9058,0,2,,-13.99
1.760000,-626.0312,15.0798,0,2,,-13.99
1.762000,-626.0312,15.2524,0,2,,-13.99
1.764000,-626.0312,15.4236,0,2,,-13.99
1.766000,-626.0312,15.5935,0,2,,-13.99
1.768000,-626.0312,15.7620,0,2,,-13.99
1.770000,-626.0312,15.9291,0,2,,-13.99
1.772000,-626.0312,16.0948,0,2,,-13.99
1.774000,-626.0312,16.2590,0,2,,-13.99
1.776000,-626.0312,16.4217,0,2,,-13.99
1.778000,-626.0312,16.5829,0,2,,-13.99
1.780000,-626.0312,16.7426,0,2,,-13.99
1.782000,-626.0312,16.9008,0,2,,-13.99
1.784000,-626.0312,17.0577,0,2,,-13.99
1.786000,-626.0312,17.2132,0,2,,-13.99
1.788000,-626.0312,17.3673,0,2,,-13.99
1.790000,-626.0312,17.5201,0,2,,-13.99
1.792000,-626.0312,17.6714,0,2,,-13.99
1.794000,-626.0312,17.8213,0,2,,-13.99
1.796000,-626.0312,17.9696,0,2,,-13.99
1.798000,-626.0312,18.1164,0,2,,-13.99
1.800000,-626.0312,18.2618,0,2,,-13.99
1.802000,-626.0312,18.4057,0,2,,-13.99
1.804000,-626.0312,18.5483,0,2,,-13.99
1.806000,-626.0312,18.6895,0,2,,-13.99
1.808000,-626.0312,18.8293,0,2,,-13.99
1.810000,-626.0312,18.9677,0,2,,-13.99
1.812000,-626.0312,19.1047,0,2,,-13.99
1.814000,-626.0312,19.2403,0,2,,-13.99
1.816000,-626.0312,19.3743,0,2,,-13.99
1.818000,-626.0312,19.5069,0,2,,-13.99
1.820000,-626.0312,19.6380,0,2,,-13.99
1.822000,-626.0312,19.7677,0,2,,-13.99
1.824000,-626.0312,19.8960,0,2,,-13.99
1.826000,-626.0312,20.0229,0,2,,-13.99
1.828000,-626.0312,20.1485,0,2,,-13.99
1.830000,-626.0312,20.2727,0,2,,-13.99
1.832000,-626.0312,20.3955,0,2,,-13.99
1.834000,-626.0312,20.5169,0,2,,-13.99
1.836000,-626.0312,20.6368,0,2,,-13.99
1.838000,-626.0312,20.7552,0,2,,-13.99
1.840000,-626.0312,20.8721,0,2,,-13.99
1.842000,-626.0312,20.9877,0,2,,-13.99
1.844000,-626.0312,21.1019,0,2,,-13.99
1.846000,-626.0312,21.2148,0,2,,-13.99
1.848000,-626.0312,21.3263,0,2,,-13.99
1.850000,-626.0312,21.4364,0,2,,-13.99
1.852000,-626.0312,21.5452,0,2,,-13.99
1.854000,-626.0312,21.6525,0,2,,-13.99
1.856000,-626.0312,21.7584,0,2,,-13.99
1.858000,-626.0312,21.8628,0,2,,-13.99
1.860000,-626.0312,21.9658,0,2,,-13.99
1.862000,-626.0312,22.0674,0,2,,-13.99
1.864000,-626.0312,22.1677,0,2,,-13.99
1.866000,-626.0312,22.2667,0,2,,-13.99
1.868000,-626.0312,22.3643,0,2,,-13.99
1.870000,-626.0312,22.4606,0,2,,-13.99
1.872000,-626.0312,22.5555,0,2,,-13.99
1.874000,-626.0312,22.6490,0,2,,-13.99
1.876000,-626.0312,22.7411,0,2,,-13.99
1.878000,-626.0312,22.8317,0,2,,-13.99
1.880000,-626.0312,22.9210,0,2,,-13.99
1.882000,-626.0312,23.0089,0,2,,-13.99
1.884000,-626.0312,23.0955,0,2,,-13.99
1.886000,-626.0312,23.1808,0,2,,-13.99
1.888000,-626.0312,23.2648,0,2,,-13.99
1.890000,-626.0312,23.3475,0,2,,-13.99
1.892000,-626.0312,23.4288,0,2,,-13.99
1.894000,-626.0312,23.5087,0,2,,-13.99
1.896000,-626.0312,23.5872,0,2,,-13.99
1.898000,-626.0312,23.6644,0,2,,-13.99
1.900000,-626.0312,23.7402,0,2,,-13.99
1.902000,-626.0312,23.8147,0,2,,-13.99
1.904000,-626.0312,23.8879,0,2,,-13.99
1.906000,-626.0312,23.9598,0,2,,-13.99
1.908000,-626.0312,24.0304,0,2,,-13.99
1.910000,-626.0312,24.0997,0,2,,-13.99
1.912000,-626.0312,24.1677,0,2,,-13.99
1.914000,-626.0312,24.2344,0,2,,-13.99
1.916000,-626.0312,24.2997,0,2,,-13.99
1.918000,-626.0312,24.3637,0,2,,-13.99
1.920000,-626.0312,24.4263,0,2,,-13.99
1.922000,-626.0312,24.4877,0,2,,-13.99
1.924000,-626.0312,24.5478,0,2,,-13.99
1.926000,-626.0312,24.6066,0,2,,-13.99
1.928000,-626.0312,24.6642,0,2,,-13.99
1.930000,-626.0312,24.7205,0,2,,-13.99
1.932000,-626.0312,24.7755,0,2,,-13.99
1.934000,-626.0312,24.8292,0,2,,-13.99
1.936000,-626.0312,24.8817,0,2,,-13.99
1.938000,-626.0312,24.9328,0,2,,-13.99
1.940000,-626.0312,24.9826,0,2,,-13.99
1.942000,-626.0312,25.0312,0,2,,-13.99
1.944000,-626.0312,25.0785,0,2,,-13.99
1.946000,-626.0312,25.1246,0,2,,-13.99
1.948000,-626.0312,25.1695,0,2,,-13.99
1.950000,-626.0312,25.2132,0,2,,-13.99
1.952000,-626.0312,25.2556,0,2,,-13.99
1.954000,-626.0312,25.2968,0,2,,-13.99
1.956000,-626.0312,25.3367,0,2,,-13.99
1.958000,-626.0312,25.3753,0,2,,-13.99
1.960000,-626.0312,25.4127,0,2,,-13.99
1.962000,-626.0312,25.4488,0,2,,-13.99
1.964000,-626.0312,25.4838,0,2,,-13.99
1.966000,-626.0312,25.5176,0,2,,-13.99
1.968000,-626.0312,25.5502,0,2,,-13.99
1.970000,-626.0312,25.5816,0,2,,-13.99
1.972000,-626.0312,25.6118,0,2,,-13.99
1.974000,-626.0312,25.6408,0,2,,-13.99
1.976000,-626.0312,25.6686,0,2,,-13.99
1.978000,-626.0312,25.6952,0,2,,-13.99
1.980000,-626.0312,25.7205,0,2,,-13.99
1.982000,-626.0312,25.7447,0,2,,-13.99
1.984000,-626.0312,25.7677,0,2,,-13.99
1.986000,-626.0312,25.7896,0,2,,-13.99
1.988000,-626.0312,25.8103,0,2,,-13.99
1.990000,-626.0312,25.8299,0,2,,-13.99
1.992000,-626.0312,25.8484,0,2,,-13.99
1.994000,-626.0312,25.8656,0,2,,-13.99
1.996000,-626.0312,25.8817,0,2,,-13.99
1.998000,-626.0312,25.8966,0,2,,-13.99
2.000000,-626.0312,25.9104,0,2,,-13.99
2.002000,-626.0312,25.9230,0,2,,-13.99
2.004000,-626.0312,25.9345,0,2,,-13.99
2.006000,-626.0312,25.9450,0,2,,-13.99
2.008000,-626.0312,25.9543,0,2,,-13.99
2.010000,-626.0312,25.9625,0,2,,-13.99
2.012000,-626.0312,25.9696,0,2,,-13.99
2.014000,-626.0312,25.9756,0,2,,-13.99
2.016000,-626.0312,25.9804,0,2,,-13.99
2.018000,-626.0312,25.9842,0,2,,-13.99
2.020000,-626.0312,25.9868,0,2,,-13.99
2.022000,-626.0312,25.9884,0,2,,-13.99
2.024000,-626.0312,25.9888,0,2,,-13.99
2.026000,-626.0312,25.9883,0,2,,-13.99
2.028000,-626.0312,25.9866,0,2,,-13.99
2.030000,-626.0312,25.9840,0,2,,-13.99
2.032000,-626.0312,25.9802,0,2,,-13.99
2.034000,-626.0312,25.9754,0,2,,-13.99
2.036000,-626.0312,25.9695,0,2,,-13.99
2.038000,-626.0312,25.9625,0,2,,-13.99
2.040000,-626.0312,25.9545,0,2,,-13.99
2.042000,-626.0312,25.9455,0,2,,-13.99
2.044000,-626.0312,25.9354,0,2,,-13.99
2.046000,-626.0312,25.9243,0,2,,-13.99
2.048000,-626.0312,25.9123,0,2,,-13.99
2.050000,-626.0312,25.8992,0,2,,-13.99
2.052000,-626.0312,25.8851,0,2,,-13.99
2.054000,-626.0312,25.8700,0,2,,-13.99
2.056000,-626.0312,25.8538,0,2,,-13.99
2.058000,-626.0312,25.8367,0,2,,-13.99
2.060000,-626.0312,25.8185,0,2,,-13.99
2.062000,-626.0312,25.7994,0,2,,-13.99
2.064000,-626.0312,25.7793,0,2,,-13.99
2.066000,-626.0312,25.7582,0,2,,-13.99
2.068000,-626.0312,25.7362,0,2,,-13.99
2.070000,-626.0312,25.7132,0,2,,-13.99
2.072000,-626.0312,25.6893,0,2,,-13.99
2.074000,-626.0312,25.6644,0,2,,-13.99
2.076000,-626.0312,25.6386,0,2,,-13.99
2.078000,-626.0312,25.6117,0,2,,-13.99
2.080000,-626.0312,25.5840,0,2,,-13.99
2.082000,-626.0312,25.5553,0,2,,-13.99
2.084000,-626.0312,25.5256,0,2,,-13.99
2.086000,-626.0312,25.4951,0,2,,-13.99
2.088000,-626.0312,25.4637,0,2,,-13.99
2.090000,-626.0312,25.4314,0,2,,-13.99
2.092000,-626.0312,25.3981,0,2,,-13.99
2.094000,-626.0312,25.3640,0,2,,-13.99
2.096000,-626.0312,25.3289,0,2,,-13.99
2.098000,-626.0312,25.2930,0,2,,-13.99
2.100000,-626.0312,25.2561,0,2,,-13.99
2.102000,-626.0312,25.2184,0,2,,-13.99
2.104000,-626.0312,25.1798,0,2,,-13.99
2.106000,-626.0312,25.1403,0,2,,-13.99
2.108000,-626.0312,25.1000,0,2,,-13.99
2.110000,-626.0312,25.0589,0,2,,-13.99
2.112000,-626.0312,25.0169,0,2,,-13.99
2.114000,-626.0312,24.9740,0,2,,-13.99
2.116000,-626.0312,24.9303,0,2,,-13.99
2.118000,-626.0312,24.8858,0,2,,-13.99
2.120000,-626.0312,24.8404,0,2,,-13.99
2.122000,-626.0312,24.7942,0,2,,-13.99
2.124000,-626.0312,24.7472,0,2,,-13.99
2.126000,-626.0312,24.6993,0,2,,-13.99
2.128000,-626.0312,24.6507,0,2,,-13.99
2.130000,-626.0312,24.6013,0,2,,-13.99
2.132000,-626.0312,24.5511,0,2,,-13.99
2.134000,-626.0312,24.5001,0,2,,-13.99
2.136000,-626.0312,24.4483,0,2,,-13.99
2.138000,-626.0312,24.3957,0,2,,-13.99
2.140000,-626.0312,24.3424,0,2,,-13.99
2.142000,-626.0312,24.2882,0,2,,-13.99
2.144000,-626.0312,24.2333,0,2,,-13.99
2.146000,-626.0312,24.1777,0,2,,-13.99
2.148000,-626.0312,24.1213,0,2,,-13.99
2.150000,-626.0312,24.0642,0,2,,-13.99
2.152000,-626.0312,24.0064,0,2,,-13.99
2.154000,-626.0312,23.9478,0,2,,-13.99
2.156000,-626.0312,23.8884,0,2,,-13.99
2.158000,-626.0312,23.8284,0,2,,-13.99
2.160000,-626.0312,23.7676,0,2,,-13.99
2.162000,-626.0312,23.7061,0,2,,-13.99
2.164000,-626.0312,23.6439,0,2,,-13.99
2.166000,-626.0312,23.5810,0,2,,-13.99
2.168000,-626.0312,23.5174,0,2,,-13.99
2.170000,-626.0312,23.4532,0,2,,-13.99
2.172000,-626.0312,23.3882,0,2,,-13.99
2.174000,-626.0312,23.3226,0,2,,-13.99
2.176000,-626.0312,23.2563,0,2,,-13.99
2.178000,-626.0312,23.1893,0,2,,-13.99
2.180000,-626.0312,23.1217,0,2,,-13.99
2.182000,-626.0312,23.0534,0,2,,-13.99
2.184000,-626.0312,22.9844,0,2,,-13.99
2.186000,-626.0312,22.9149,0,2,,-13.99
2.188000,-626.0312,22.8447,0,2,,-13.99
2.190000,-626.0312,22.7738,0,2,,-13.99
2.192000,-626.0312,22.7024,0,2,,-13.99
2.194000,-626.0312,22.6303,0,2,,-13.99
2.196000,-626.0312,22.5576,0,2,,-13.99
2.198000,-626.0312,22.4843,0,2,,-13.99
2.200000,-626.0312,22.4103,0,2,,-13.99
2.202000,-626.0312,22.3358,0,2,,-13.99
2.204000,-626.0312,22.2607,0,2,,-13.99
2.206000,-626.0312,22.1850,0,2,,-13.99
2.208000,-626.0312,22.1088,0,2,,-13.99
2.210000,-626.0312,22.0319,0,2,,-13.99
2.212000,-626.0312,21.9545,0,2,,-13.99
2.214000,-626.0312,21.8765,0,2,,-13.99
2.216000,-626.0312,21.7980,0,2,,-13.99
2.218000,-626.0312,21.7189,0,2,,-13.99
2.220000,-626.0312,21.6393,0,2,,-13.99
2.222000,-626.0312,21.5591,0,2,,-13.99
2.224000,-626.0312,21.4783,0,2,,-13.99
2.226000,-626.0312,21.3971,0,2,,-13.99
2.228000,-626.0312,21.3153,0,2,,-13.99
2.230000,-626.0312,21.2331,0,2,,-13.99
2.232000,-626.0312,21.1503,0,2,,-13.99
2.234000,-626.0312,21.0670,0,2,,-13.99
2.236000,-626.0312,20.9832,0,2,,-13.99
2.238000,-626.0312,20.8988,0,2,,-13.99
2.240000,-626.0312,20.8140,0,2,,-13.99
2.242000,-626.0312,20.7287,0,2,,-13.99
2.244000,-626.0312,20.6430,0,2,,-13.99
2.246000,-626.0312,20.5567,0,2,,-13.99
2.248000,-626.0312,20.4701,0,2,,-13.99
2.250000,-626.0312,20.3829,0,2,,-13.99
2.252000,-626.0312,20.2953,0,2,,-13.99
2.254000,-626.0312,20.2072,0,2,,-13.99
2.256000,-626.0312,20.1187,0,2,,-13.99
2.258000,-626.0312,20.0297,0,2,,-13.99
2.260000,-626.0312,19.9403,0,2,,-13.99
2.262000,-626.0312,19.8505,0,2,,-13.99
2.264000,-626.0312,19.7602,0,2,,-13.99
2.266000,-626.0312,19.6696,0,2,,-13.99
2.268000,-626.0312,19.5785,0,2,,-13.99
2.270000,-626.0312,19.4870,0,2,,-13.99
2.272000,-626.0312,19.3951,0,2,,-13.99
2.274000,-626.0312,19.3029,0,2,,-13.99
2.276000,-626.0312,19.2102,0,2,,-13.99
2.278000,-626.0312,19.1171,0,2,,-13.99
2.280000,-626.0312,19.0237,0,2,,-13.99
2.282000,-626.0312,18.9298,0,2,,-13.99
2.284000,-626.0312,18.8356,0,2,,-13.99
2.286000,-626.0312,18.7411,0,2,,-13.99
2.288000,-626.0312,18.6462,0,2,,-13.99
2.290000,-626.0312,18.5509,0,2,,-13.99
2.292000,-626.0312,18.4553,0,2,,-13.99
2.294000,-626.0312,18.3594,0,2,,-13.99
2.296000,-626.0312,18.2631,0,2,,-13.99
2.298000,-626.0312,18.1665,0,2,,-13.99
2.300000,-626.0312,18.0695,0,2,,-13.99
2.302000,-626.0312,17.9722,0,2,,-13.99
2.304000,-626.0312,17.8747,0,2,,-13.99
2.306000,-626.0312,17.7768,0,2,,-13.99
2.308000,-626.0312,17.6786,0,2,,-13.99
2.310000,-626.0312,17.5801,0,2,,-13.99
2.312000,-626.0312,17.4813,0,2,,-13.99
2.314000,-626.0312,17.3822,0,2,,-13.99
2.316000,-626.0312,17.2829,0,2,,-13.99
2.318000,-626.0312,17.1832,0,2,,-13.99
2.320000,-626.0312,17.0833,0,2,,-13.99
2.322000,-626.0312,16.9831,0,2,,-13.99
2.324000,-626.0312,16.8827,0,2,,-13.99
2.326000,-626.0312,16.7819,0,2,,-13.99
2.328000,-626.0312,16.6810,0,2,,-13.99
2.330000,-626.0312,16.5798,0,2,,-13.99
2.332000,-626.0312,16.4784,0,2,,-13.99
2.334000,-626.0312,16.3767,0,2,,-13.99
2.336000,-626.0312,16.2748,0,2,,-13.99
2.338000,-626.0312,16.1726,0,2,,-13.99
2.340000,-626.0312,16.0703,0,2,,-13.99
2.342000,-626.0312,15.9677,0,2,,-13.99
2.344000,-626.0312,15.8649,0,2,,-13.99
2.346000,-626.0312,15.7619,0,2,,-13.99
2.348000,-626.0312,15.6587,0,2,,-13.99
2.350000,-626.0312,15.5553,0,2,,-13.99
2.352000,-626.0312,15.4517,0,2,,-13.99
2.354000,-626.0312,15.3480,0,2,,-13.99
2.356000,-626.0312,15.2440,0,2,,-13.99
2.358000,-626.0312,15.1399,0,2,,-13.99
2.360000,-626.0312,15.0356,0,2,,-13.99
2.362000,-626.0312,14.9311,0,2,,-13.99
2.364000,-626.0312,14.8265,0,2,,-13.99
2.366000,-626.0312,14.7217,0,2,,-13.99
2.368000,-626.0312,14.6168,0,2,,-13.99
2.370000,-626.0312,14.5117,0,2,,-13.99
2.372000,-626.0312,14.4065,0,2,,-13.99
2.374000,-626.0312,14.3011,0,2,,-13.99
2.376000,-626.0312,14.1956,0,2,,-13.99
2.378000,-626.0312,14.0900,0,2,,-13.99
2.380000,-626.0312,13.9843,0,2,,-13.99
2.382000,-626.0312,13.8784,0,2,,-13.99
2.384000,-626.0312,13.7724,0,2,,-13.99
2.386000,-626.0312,13.6664,0,2,,-13.99
2.388000,-626.0312,13.5602,0,2,,-13.99
2.390000,-626.0312,13.4539,0,2,,-13.99
2.392000,-626.0312,13.3475,0,2,,-13.99
2.394000,-626.0312,13.2411,0,2,,-13.99
2.396000,-626.0312,13.1345,0,2,,-13.99
2.398000,-626.0312,13.0279,0,2,,-13.99
2.400000,-626.0312,12.9212,0,2,,-13.99
2.402000,-626.0312,12.8144,0,2,,-13.99
2.404000,-626.0312,12.7076,0,2,,-13.99
2.406000,-626.0312,12.6007,0,2,,-13.99
2.408000,-626.0312,12.4937,0,2,,-13.99
2.410000,-626.0312,12.3867,0,2,,-13.99
2.412000,-626.0312,12.2797,0,2,,-13.99
2.414000,-626.0312,12.1726,0,2,,-13.99
2.416000,-626.0312,12.0655,0,2,,-13.99
2.418000,-626.0312,11.9583,0,2,,-13.99
2.420000,-626.0312,11.8511,0,2,,-13.99
2.422000,-626.0312,11.7439,0,2,,-13.99
2.424000,-626.0312,11.6366,0,2,,-13.99
2.426000,-626.0312,11.5293,0,2,,-13.99
2.428000,-626.0312,11.4221,0,2,,-13.99
2.430000,-626.0312,11.3148,0,2,,-13.99
2.432000,-626.0312,11.2075,0,2,,-13.99
2.434000,-626.0312,11.1003,0,2,,-13.99
2.436000,-626.0312,10.9930,0,2,,-13.99
2.438000,-626.0312,10.8857,0,2,,-13.99
2.440000,-626.0312,10.7785,0,2,,-13.99
2.442000,-626.0312,10.6712,0,2,,-13.99
2.444000,-626.0312,10.5640,0,2,,-13.99
2.446000,-626.0312,10.4568,0,2,,-13.99
2.448000,-626.0312,10.3497,0,2,,-13.99
2.450000,-626.0312,10.2426,0,2,,-13.99
2.452000,-626.0312,10.1355,0,2,,-13.99
2.454000,-626.0312,10.0285,0,2,,-13.99
2.456000,-626.0312,9.9215,0,2,,-13.99
2.458000,-626.0312,9.8146,0,2,,-13.99
2.460000,-626.0312,9.7077,0,2,,-13.99
2.462000,-626.0312,9.6009,0,2,,-13.99
2.464000,-626.0312,9.4941,0,2,,-13.99
2.466000,-626.0312,9.3875,0,2,,-13.99
2.468000,-626.0312,9.2809,0,2,,-13.99
2.470000,-626.0312,9.1743,0,2,,-13.99
2.472000,-626.0312,9.0679,0,2,,-13.99
2.474000,-626.0312,8.9615,0,2,,-13.99
2.476000,-626.0312,8.8553,0,2,,-13.99
2.478000,-626.0312,8.7491,0,2,,-13.99
2.480000,-626.0312,8.6430,0,2,,-13.99
2.482000,-626.0312,8.5370,0,2,,-13.99
2.484000,-626.0312,8.4311,0,2,,-13.99
2.486000,-626.0312,8.3254,0,2,,-13.99
2.488000,-626.0312,8.2197,0,2,,-13.99
2.490000,-626.0312,8.1142,0,2,,-13.99
2.492000,-626.0312,8.0087,0,2,,-13.99
2.494000,-626.0312,7.9034,0,2,,-13.99
2.496000,-626.0312,7.7983,0,2,,-13.99
2.498000,-626.0312,7.6932,0,2,,-13.99
2.500000,-626.0312,7.5883,0,2,,-13.99
2.502000,-626.0312,7.4836,0,2,,-13.99
2.504000,-626.0312,7.3789,0,2,,-13.99
2.506000,-626.0312,7.2744,0,2,,-13.99
2.508000,-626.0312,7.1701,0,2,,-13.99
2.510000,-626.0312,7.0659,0,2,,-13.99
2.512000,-626.0312,6.9619,0,2,,-13.99
2.514000,-626.0312,6.8581,0,2,,-13.99
2.516000,-626.0312,6.7544,0,2,,-13.99
2.518000,-626.0312,6.6508,0,2,,-13.99
2.520000,-626.0312,6.5475,0,2,,-13.99
2.522000,-626.0312,6.4443,0,2,,-13.99
2.524000,-626.0312,6.3413,0,2,,-13.99
2.526000,-626.0312,6.2384,0,2,,-13.99
2.528000,-626.0312,6.1358,0,2,,-13.99
2.530000,-626.0312,6.0334,0,2,,-13.99
2.532000,-626.0312,5.9311,0,2,,-13.99
2.534000,-626.0312,5.8290,0,2,,-13.99
2.536000,-626.0312,5.7272,0,2,,-13.99
2.538000,-626.0312,5.6255,0,2,,-13.99
2.540000,-626.0312,5.5240,0,2,,-13.99
2.542000,-626.0312,5.4228,0,2,,-13.99
2.544000,-626.0312,5.3217,0,2,,-13.99
2.546000,-626.0312,5.2209,0,2,,-13.99
2.548000,-626.0312,5.1203,0,2,,-13.99
2.550000,-626.0312,5.0199,0,2,,-13.99
2.552000,-626.0312,4.9197,0,2,,-13.99
2.554000,-626.0312,4.8198,0,2,,-13.99
2.556000,-626.0312,4.7201,0,2,,-13.99
2.558000,-626.0312,4.6206,0,2,,-13.99
2.560000,-626.0312,4.5214,0,2,,-13.99
2.562000,-626.0312,4.4224,0,2,,-13.99
2.564000,-626.0312,4.3236,0,2,,-13.99
2.566000,-626.0312,4.2251,0,2,,-13.99
2.568000,-626.0312,4.1268,0,2,,-13.99
2.570000,-626.0312,4.0288,0,2,,-13.99
2.572000,-626.0312,3.9311,0,2,,-13.99
2.574000,-626.0312,3.8336,0,2,,-13.99
2.576000,-626.0312,3.7363,0,2,,-13.99
2.578000,-626.0312,3.6394,0,2,,-13.99
2.580000,-626.0312,3.5426,0,2,,-13.99
2.582000,-626.0312,3.4462,0,2,,-13.99
2.584000,-626.0312,3.3500,0,2,,-13.99
2.586000,-626.0312,3.2541,0,2,,-13.99
2.588000,-626.0312,3.1585,0,2,,-13.99
2.590000,-626.0312,3.0632,0,2,,-13.99
2.592000,-626.0312,2.9682,0,2,,-13.99
2.594000,-626.0312,2.8734,0,2,,-13.99
2.596000,-626.0312,2.7789,0,2,,-13.99
2.598000,-626.0312,2.6847,0,2,,-13.99
2.600000,-626.0312,2.5908,0,2,,-13.99
2.602000,-626.0312,2.4972,0,2,,-13.99
2.604000,-626.0312,2.4040,0,2,,-13.99
2.606000,-626.0312,2.3110,0,2,,-13.99
2.608000,-626.0312,2.2183,0,2,,-13.99
2.610000,-626.0312,2.1259,0,2,,-13.99
2.612000,-626.0312,2.0338,0,2,,-13.99
2.614000,-626.0312,1.9421,0,2,,-13.99
2.616000,-626.0312,1.8506,0,2,,-13.99
2.618000,-626.0312,1.7595,0,2,,-13.99
2.620000,-626.0312,1.6687,0,2,,-13.99
2.622000,-626.0312,1.5782,0,2,,-13.99
2.624000,-626.0312,1.4880,0,2,,-13.99
2.626000,-626.0312,1.3982,0,2,,-13.99
2.628000,-626.0312,1.3087,0,2,,-13.99
2.630000,-626.0312,1.2195,0,2,,-13.99
2.632000,-626.0312,1.1307,0,2,,-13.99
2.634000,-626.0312,1.0422,0,2,,-13.99
2.636000,-626.0312,0.9540,0,2,,-13.99
2.638000,-626.0312,0.8662,0,2,,-13.99
2.640000,-626.0312,0.7787,0,2,,-13.99
2.642000,-626.0312,0.6916,0,2,,-13.99
2.644000,-626.0312,0.6048,0,2,,-13.99
2.646000,-626.0312,0.5183,0,2,,-13.99
2.648000,-626.0312,0.4323,0,2,,-13.99
2.650000,-626.0312,0.3465,0,2,,-13.99
2.652000,-626.0312,0.2611,0,2,,-13.99
2.654000,-626.0312,0.1761,0,2,,-13.99
2.656000,-626.0312,0.0915,0,2,,-13.99
2.658000,-626.0312,0.0072,0,2,,-13.99
2.660000,-626.0312,-0.0768,0,2,,-13.99
2.662000,-626.0312,-0.1603,0,2,,-13.99
2.664000,-626.0312,-0.2435,0,2,,-13.99
2.666000,-626.0312,-0.3264,0,2,,-13.99
2.668000,-626.0312,-0.4088,0,2,,-13.99
2.670000,-626.0312,-0.4909,0,2,,-13.99
2.672000,-626.0312,-0.5726,0,2,,-13.99
2.674000,-626.0312,-0.6540,0,2,,-13.99
2.676000,-626.0312,-0.7349,0,2,,-13.99
2.678000,-626.0312,-0.8155,0,2,,-13.99
2.680000,-626.0312,-0.8957,0,2,,-13.99
2.682000,-626.0312,-0.9755,0,2,,-13.99
2.684000,-626.0312,-1.0549,0,2,,-13.99
2.686000,-626.0312,-1.1339,0,2,,-13.99
2.688000,-626.0312,-1.2126,0,2,,-13.99
2.690000,-626.0312,-1.2908,0,2,,-13.99
2.692000,-626.0312,-1.3686,0,2,,-13.99
2.694000,-626.0312,-1.4461,0,2,,-13.99
2.696000,-626.0312,-1.5232,0,2,,-13.99
2.698000,-626.0312,-1.5998,0,2,,-13.99
2.700000,-626.0312,-1.6761,0,2,,-13.99
2.702000,-626.0312,-1.7519,0,2,,-13.99
2.704000,-626.0312,-1.8274,0,2,,-13.99
2.706000,-626.0312,-1.9025,0,2,,-13.99
2.708000,-626.0312,-1.9771,0,2,,-13.99
2.710000,-626.0312,-2.0513,0,2,,-13.99
2.712000,-626.0312,-2.1252,0,2,,-13.99
2.714000,-626.0312,-2.1986,0,2,,-13.99
2.716000,-626.0312,-2.2716,0,2,,-13.99
2.718000,-626.0312,-2.3442,0,2,,-13.99
2.720000,-626.0312,-2.4163,0,2,,-13.99
2.722000,-626.0312,-2.4881,0,2,,-13.99
2.724000,-626.0312,-2.5594,0,2,,-13.99
2.726000,-626.0312,-2.6304,0,2,,-13.99
2.728000,-626.0312,-2.7009,0,2,,-13.99
2.730000,-626.0312,-2.7710,0,2,,-13.99
2.732000,-626.0312,-2.8406,0,2,,-13.99
2.734000,-626.0312,-2.9098,0,2,,-13.99
2.736000,-626.0312,-2.9786,0,2,,-13.99
2.738000,-626.0312,-3.0470,0,2,,-13.99
2.740000,-626.0312,-3.1150,0,2,,-13.99
2.742000,-626.0312,-3.1825,0,2,,-13.99
2.744000,-626.0312,-3.2496,0,2,,-13.99
2.746000,-626.0312,-3.3163,0,2,,-13.99
2.748000,-626.0312,-3.3825,0,2,,-13.99
2.750000,-626.0312,-3.4483,0,2,,-13.99
2.752000,-626.0312,-3.5136,0,2,,-13.99
2.754000,-626.0312,-3.5786,0,2,,-13.99
2.756000,-626.0312,-3.6430,0,2,,-13.99
2.758000,-626.0312,-3.7071,0,2,,-13.99
2.760000,-626.0312,-3.7707,0,2,,-13.99
2.762000,-626.0312,-3.8339,0,2,,-13.99
2.764000,-626.0312,-3.8966,0,2,,-13.99
2.766000,-626.0312,-3.9589,0,2,,-13.99
2.768000,-626.0312,-4.0208,0,2,,-13.99
2.770000,-626.0312,-4.0822,0,2,,-13.99
2.772000,-626.0312,-4.1431,0,2,,-13.99
2.774000,-626.0312,-4.2036,0,2,,-13.99
2.776000,-626.0312,-4.2637,0,2,,-13.99
2.778000,-626.0312,-4.3233,0,2,,-13.99
2.780000,-626.0312,-4.3825,0,2,,-13.99
2.782000,-626.0312,-4.4412,0,2,,-13.99
2.784000,-626.0312,-4.4995,0,2,,-13.99
2.786000,-626.0312,-4.5573,0,2,,-13.99
2.788000,-626.0312,-4.6147,0,2,,-13.99
2.790000,-626.0312,-4.6716,0,2,,-13.99
2.792000,-626.0312,-4.7281,0,2,,-13.99
2.794000,-626.0312,-4.7841,0,2,,-13.99
2.796000,-626.0312,-4.8397,0,2,,-13.99
2.798000,-626.0312,-4.8948,0,2,,-13.99
2.800000,-626.0312,-4.9494,0,2,,-13.99
2.802000,-626.0312,-5.0036,0,2,,-13.99
2.804000,-626.0312,-5.0574,0,2,,-13.99
2.806000,-626.0312,-5.1107,0,2,,-13.99
2.808000,-626.0312,-5.1635,0,2,,-13.99
2.810000,-626.0312,-5.2159,0,2,,-13.99
2.812000,-626.0312,-5.2678,0,2,,-13.99
2.814000,-626.0312,-5.3192,0,2,,-13.99
2.816000,-626.0312,-5.3702,0,2,,-13.99
2.818000,-626.0312,-5.4208,0,2,,-13.99
2.820000,-626.0312,-5.4708,0,2,,-13.99
2.822000,-626.0312,-5.5205,0,2,,-13.99
2.824000,-626.0312,-5.5696,0,2,,-13.99
2.826000,-626.0312,-5.6183,0,2,,-13.99
2.828000,-626.0312,-5.6665,0,2,,-13.99
2.830000,-626.0312,-5.7143,0,2,,-13.99
2.832000,-626.0312,-5.7616,0,2,,-13.99
2.834000,-626.0312,-5.8085,0,2,,-13.99
2.836000,-626.0312,-5.8549,0,2,,-13.99
2.838000,-626.0312,-5.9008,0,2,,-13.99
2.840000,-626.0312,-5.9462,0,2,,-13.99
2.842000,-626.0312,-5.9912,0,2,,-13.99
2.844000,-626.0312,-6.0358,0,2,,-13.99
2.846000,-626.0312,-6.0798,0,2,,-13.99
2.848000,-626.0312,-6.1234,0,2,,-13.99
2.850000,-626.0312,-6.1666,0,2,,-13.99
2.852000,-626.0312,-6.2093,0,2,,-13.99
2.854000,-626.0312,-6.2515,0,2,,-13.99
2.856000,-626.0312,-6.2932,0,2,,-13.99
2.858000,-626.0312,-6.3345,0,2,,-13.99
2.860000,-626.0312,-6.3753,0,2,,-13.99
2.862000,-626.0312,-6.4157,0,2,,-13.99
2.864000,-626.0312,-6.4556,0,2,,-13.99
2.866000,-626.0312,-6.4950,0,2,,-13.99
2.868000,-626.0312,-6.5340,0,2,,-13.99
2.870000,-626.0312,-6.5724,0,2,,-13.99
2.872000,-626.0312,-6.6105,0,2,,-13.99
2.874000,-626.0312,-6.6480,0,2,,-13.99
2.876000,-626.0312,-6.6851,0,2,,-13.99
2.878000,-626.0312,-6.7218,0,2,,-13.99
2.880000,-626.0312,-6.7579,0,2,,-13.99
2.882000,-626.0312,-6.7936,0,2,,-13.99
2.884000,-626.0312,-6.8289,0,2,,-13.99
2.886000,-626.0312,-6.8637,0,2,,-13.99
2.888000,-626.0312,-6.8980,0,2,,-13.99
2.890000,-626.0312,-6.9318,0,2,,-13.99
2.892000,-626.0312,-6.9652,0,2,,-13.99
2.894000,-626.0312,-6.9981,0,2,,-13.99
2.896000,-626.0312,-7.0306,0,2,,-13.99
2.898000,-626.0312,-7.0626,0,2,,-13.99
2.900000,-626.0312,-7.0941,0,2,,-13.99
2.902000,-626.0312,-7.1252,0,2,,-13.99
2.904000,-626.0312,-7.1558,0,2,,-13.99
2.906000,-626.0312,-7.1860,0,2,,-13.99
2.908000,-626.0312,-7.2156,0,2,,-13.99
2.910000,-626.0312,-7.2449,0,2,,-13.99
2.912000,-626.0312,-7.2736,0,2,,-13.99
2.914000,-626.0312,-7.3019,0,2,,-13.99
2.916000,-626.0312,-7.3298,0,2,,-13.99
2.918000,-626.0312,-7.3571,0,2,,-13.99
2.920000,-626.0312,-7.3841,0,2,,-13.99
2.922000,-626.0312,-7.4105,0,2,,-13.99
2.924000,-626.0312,-7.4365,0,2,,-13.99
2.926000,-626.0312,-7.4621,0,2,,-13.99
2.928000,-626.0312,-7.4872,0,2,,-13.99
2.930000,-626.0312,-7.5118,0,2,,-13.99
2.932000,-626.0312,-7.5360,0,2,,-13.99
2.934000,-626.0312,-7.5597,0,2,,-13.99
2.936000,-626.0312,-7.5830,0,2,,-13.99
2.938000,-626.0312,-7.6058,0,2,,-13.99
2.940000,-626.0312,-7.6281,0,2,,-13.99
2.942000,-626.0312,-7.6501,0,2,,-13.99
2.944000,-626.0312,-7.6715,0,2,,-13.99
2.946000,-626.0312,-7.6925,0,2,,-13.99
2.948000,-626.0312,-7.7131,0,2,,-13.99
2.950000,-626.0312,-7.7331,0,2,,-13.99
2.952000,-626.0312,-7.7528,0,2,,-13.99
2.954000,-626.0312,-7.7720,0,2,,-13.99
2.956000,-626.0312,-7.7907,0,2,,-13.99
2.958000,-626.0312,-7.8090,0,2,,-13.99
2.960000,-626.0312,-7.8269,0,2,,-13.99
2.962000,-626.0312,-7.8443,0,2,,-13.99
2.964000,-626.0312,-7.8612,0,2,,-13.99
2.966000,-626.0312,-7.8777,0,2,,-13.99
2.968000,-626.0312,-7.8938,0,2,,-13.99
2.970000,-626.0312,-7.9094,0,2,,-13.99
2.972000,-626.0312,-7.9246,0,2,,-13.99
2.974000,-626.0312,-7.9393,0,2,,-13.99
2.976000,-626.0312,-7.9536,0,2,,-13.99
2.978000,-626.0312,-7.9674,0,2,,-13.99
2.980000,-626.0312,-7.9808,0,2,,-13.99
2.982000,-626.0312,-7.9938,0,2,,-13.99
2.984000,-626.0312,-8.0064,0,2,,-13.99
2.986000,-626.0312,-8.0185,0,2,,-13.99
2.988000,-626.0312,-8.0301,0,2,,-13.99
2.990000,-626.0312,-8.0413,0,2,,-13.99
2.992000,-626.0312,-8.0521,0,2,,-13.99
2.994000,-626.0312,-8.0625,0,2,,-13.99
2.996000,-626.0312,-8.0724,0,2,,-13.99
2.998000,-626.0312,-8.0819,0,2,,-13.99
3.000000,-626.0312,-8.0909,0,2,,-13.99
3.002000,-626.0312,-8.0996,0,2,,-13.99
3.004000,-626.0312,-8.1078,0,2,,-13.99
3.006000,-626.0312,-8.1155,0,2,,-13.99
3.008000,-626.0312,-8.1229,0,2,,-13.99
3.010000,-626.0312,-8.1298,0,2,,-13.99
3.012000,-626.0312,-8.1363,0,2,,-13.99
3.014000,-626.0312,-8.1423,0,2,,-13.99
3.016000,-626.0312,-8.1480,0,2,,-13.99
3.018000,-626.0312,-8.1532,0,2,,-13.99
3.020000,-626.0312,-8.1580,0,2,,-13.99
3.022000,-626.0312,-8.1624,0,2,,-13.99
3.024000,-626.0312,-8.1664,0,2,,-13.99
3.026000,-626.0312,-8.1699,0,2,,-13.99
3.028000,-626.0312,-8.1731,0,2,,-13.99
3.030000,-626.0312,-8.1758,0,2,,-13.99
3.032000,-626.0312,-8.1781,0,2,,-13.99
3.034000,-626.0312,-8.1800,0,2,,-13.99
3.036000,-626.0312,-8.1814,0,2,,-13.99
3.038000,-626.0312,-8.1825,0,2,,-13.99
3.040000,-626.0312,-8.1832,0,2,,-13.99
3.042000,-626.0312,-8.1834,0,2,,-13.99
3.044000,-626.0312,-8.1833,0,2,,-13.99
3.046000,-626.0312,-8.1827,0,2,,-13.99
3.048000,-626.0312,-8.1818,0,2,,-13.99
3.050000,-626.0312,-8.1804,0,2,,-13.99
3.052000,-626.0312,-8.1786,0,2,,-13.99
3.054000,-626.0312,-8.1764,0,2,,-13.99
3.056000,-626.0312,-8.1739,0,2,,-13.99
3.058000,-626.0312,-8.1709,0,2,,-13.99
3.060000,-626.0312,-8.1676,0,2,,-13.99
3.062000,-626.0312,-8.1638,0,2,,-13.99
3.064000,-626.0312,-8.1597,0,2,,-13.99
3.066000,-626.0312,-8.1551,0,2,,-13.99
3.068000,-626.0312,-8.1502,0,2,,-13.99
3.070000,-626.0312,-8.1449,0,2,,-13.99
3.072000,-626.0312,-8.1392,0,2,,-13.99
3.074000,-626.0312,-8.1331,0,2,,-13.99
3.076000,-626.0312,-8.1266,0,2,,-13.99
3.078000,-626.0312,-8.1197,0,2,,-13.99
3.080000,-626.0312,-8.1125,0,2,,-13.99
3.082000,-626.0312,-8.1049,0,2,,-13.99
3.084000,-626.0312,-8.0969,0,2,,-13.99
3.086000,-626.0312,-8.0885,0,2,,-13.99
3.088000,-626.0312,-8.0798,0,2,,-13.99
3.090000,-626.0312,-8.0706,0,2,,-13.99
3.092000,-626.0312,-8.0611,0,2,,-13.99
3.094000,-626.0312,-8.0512,0,2,,-13.99
3.096000,-626.0312,-8.0410,0,2,,-13.99
3.098000,-626.0312,-8.0303,0,2,,-13.99
3.100000,-626.0312,-8.0194,0,2,,-13.99
3.102000,-626.0312,-8.0080,0,2,,-13.99
3.104000,-626.0312,-7.9963,0,2,,-13.99
3.106000,-626.0312,-7.9843,0,2,,-13.99
3.108000,-626.0312,-7.9718,0,2,,-13.99
3.110000,-626.0312,-7.9590,0,2,,-13.99
3.112000,-626.0312,-7.9459,0,2,,-13.99
3.114000,-626.0312,-7.9323,0,2,,-13.99
3.116000,-626.0312,-7.9185,0,2,,-13.99
3.118000,-626.0312,-7.9043,0,2,,-13.99
3.120000,-626.0312,-7.8897,0,2,,-13.99
3.122000,-626.0312,-7.8748,0,2,,-13.99
3.124000,-626.0312,-7.8595,0,2,,-13.99
3.126000,-626.0312,-7.8439,0,2,,-13.99
3.128000,-626.0312,-7.8280,0,2,,-13.99
3.130000,-626.0312,-7.8117,0,2,,-13.99
3.132000,-626.0312,-7.7950,0,2,,-13.99
3.134000,-626.0312,-7.7780,0,2,,-13.99
3.136000,-626.0312,-7.7607,0,2,,-13.99
3.138000,-626.0312,-7.7430,0,2,,-13.99
3.140000,-626.0312,-7.7251,0,2,,-13.99
3.142000,-626.0312,-7.7068,0,2,,-13.99
3.144000,-626.0312,-7.6881,0,2,,-13.99
3.146000,-626.0312,-7.6692,0,2,,-13.99
3.148000,-626.0312,-7.6499,0,2,,-13.99
3.150000,-626.0312,-7.6302,0,2,,-13.99
3.152000,-626.0312,-7.6103,0,2,,-13.99
3.154000,-626.0312,-7.5900,0,2,,-13.99
3.156000,-626.0312,-7.5693,0,2,,-13.99
3.158000,-626.0312,-7.5484,0,2,,-13.99
3.160000,-626.0312,-7.5272,0,2,,-13.99
3.162000,-626.0312,-7.5057,0,2,,-13.99
3.164000,-626.0312,-7.4838,0,2,,-13.99
3.166000,-626.0312,-7.4617,0,2,,-13.99
3.168000,-626.0312,-7.4392,0,2,,-13.99
3.170000,-626.0312,-7.4164,0,2,,-13.99
3.172000,-626.0312,-7.3933,0,2,,-13.99
3.174000,-626.0312,-7.3699,0,2,,-13.99
3.176000,-626.0312,-7.3461,0,2,,-13.99
3.178000,-626.0312,-7.3221,0,2,,-13.99
3.180000,-626.0312,-7.2979,0,2,,-13.99
3.182000,-626.0312,-7.2733,0,2,,-13.99
3.184000,-626.0312,-7.2484,0,2,,-13.99
3.186000,-626.0312,-7.2232,0,2,,-13.99
3.188000,-626.0312,-7.1978,0,2,,-13.99
3.190000,-626.0312,-7.1720,0,2,,-13.99
3.192000,-626.0312,-7.1460,0,2,,-13.99
3.194000,-626.0312,-7.1196,0,2,,-13.99
3.196000,-626.0312,-7.0930,0,2,,-13.99
3.198000,-626.0312,-7.0661,0,2,,-13.99
3.200000,-626.0312,-7.0389,0,2,,-13.99
3.202000,-626.0312,-7.0115,0,2,,-13.99
3.204000,-626.0312,-6.9838,0,2,,-13.99
3.206000,-626.0312,-6.9558,0,2,,-13.99
3.208000,-626.0312,-6.9276,0,2,,-13.99
3.210000,-626.0312,-6.8990,0,2,,-13.99
3.212000,-626.0312,-6.8702,0,2,,-13.99
3.214000,-626.0312,-6.8411,0,2,,-13.99
3.216000,-626.0312,-6.8118,0,2,,-13.99
3.218000,-626.0312,-6.7822,0,2,,-13.99
3.220000,-626.0312,-6.7523,0,2,,-13.99
3.222000,-626.0312,-6.7222,0,2,,-13.99
3.224000,-626.0312,-6.6919,0,2,,-13.99
3.226000,-626.0312,-6.6613,0,2,,-13.99
3.228000,-626.0312,-6.6305,0,2,,-13.99
3.230000,-626.0312,-6.5993,0,2,,-13.99
3.232000,-626.0312,-6.5680,0,2,,-13.99
3.234000,-626.0312,-6.5363,0,2,,-13.99
3.236000,-626.0312,-6.5045,0,2,,-13.99
3.238000,-626.0312,-6.4724,0,2,,-13.99
3.240000,-626.0312,-6.4401,0,2,,-13.99
3.242000,-626.0312,-6.4075,0,2,,-13.99
3.244000,-626.0312,-6.3748,0,2,,-13.99
3.246000,-626.0312,-6.3418,0,2,,-13.99
3.248000,-626.0312,-6.3086,0,2,,-13.99
3.250000,-626.0312,-6.2751,0,2,,-13.99
3.252000,-626.0312,-6.2413,0,2,,-13.99
3.254000,-626.0312,-6.2074,0,2,,-13.99
3.256000,-626.0312,-6.1732,0,2,,-13.99
3.258000,-626.0312,-6.1389,0,2,,-13.99
3.260000,-626.0312,-6.1043,0,2,,-13.99
3.262000,-626.0312,-6.0695,0,2,,-13.99
3.264000,-626.0312,-6.0345,0,2,,-13.99
3.266000,-626.0312,-5.9994,0,2,,-13.99
3.268000,-626.0312,-5.9639,0,2,,-13.99
3.270000,-626.0312,-5.9283,0,2,,-13.99
3.272000,-626.0312,-5.8924,0,2,,-13.99
3.274000,-626.0312,-5.8564,0,2,,-13.99
3.276000,-626.0312,-5.8201,0,2,,-13.99
3.278000,-626.0312,-5.7837,0,2,,-13.99
3.280000,-626.0312,-5.7471,0,2,,-13.99
3.282000,-626.0312,-5.7103,0,2,,-13.99
3.284000,-626.0312,-5.6733,0,2,,-13.99
3.286000,-626.0312,-5.6361,0,2,,-13.99
3.288000,-626.0312,-5.5988,0,2,,-13.99
3.290000,-626.0312,-5.5612,0,2,,-13.99
3.292000,-626.0312,-5.5234,0,2,,-13.99
3.294000,-626.0312,-5.4855,0,2,,-13.99
3.296000,-626.0312,-5.4473,0,2,,-13.99
3.298000,-626.0312,-5.4091,0,2,,-13.99
3.300000,-626.0312,-5.3706,0,2,,-13.99
3.302000,-626.0312,-5.3321,0,2,,-13.99
3.304000,-626.0312,-5.2933,0,2,,-13.99
3.306000,-626.0312,-5.2544,0,2,,-13.99
3.308000,-626.0312,-5.2153,0,2,,-13.99
3.310000,-626.0312,-5.1760,0,2,,-13.99
3.312000,-626.0312,-5.1366,0,2,,-13.99
3.314000,-626.0312,-5.0969,0,2,,-13.99
3.316000,-626.0312,-5.0572,0,2,,-13.99
3.318000,-626.0312,-5.0173,0,2,,-13.99
3.320000,-626.0312,-4.9772,0,2,,-13.99
3.322000,-626.0312,-4.9371,0,2,,-13.99
3.324000,-626.0312,-4.8968,0,2,,-13.99
3.326000,-626.0312,-4.8564,0,2,,-13.99
3.328000,-626.0312,-4.8158,0,2,,-13.99
3.330000,-626.0312,-4.7750,0,2,,-13.99
3.332000,-626.0312,-4.7341,0,2,,-13.99
3.334000,-626.0312,-4.6931,0,2,,-13.99
3.336000,-626.0312,-4.6519,0,2,,-13.99
3.338000,-626.0312,-4.6106,0,2,,-13.99
3.340000,-626.0312,-4.5692,0,2,,-13.99
3.342000,-626.0312,-4.5277,0,2,,-13.99
3.344000,-626.0312,-4.4861,0,2,,-13.99
3.346000,-626.0312,-4.4444,0,2,,-13.99
3.348000,-626.0312,-4.4026,0,2,,-13.99
3.350000,-626.0312,-4.3606,0,2,,-13.99
3.352000,-626.0312,-4.3184,0,2,,-13.99
3.354000,-626.0312,-4.2762,0,2,,-13.99
3.356000,-626.0312,-4.2338,0,2,,-13.99
3.358000,-626.0312,-4.1914,0,2,,-13.99
3.360000,-626.0312,-4.1489,0,2,,-13.99
3.362000,-626.0312,-4.1063,0,2,,-13.99
3.364000,-626.0312,-4.0636,0,2,,-13.99
3.366000,-626.0312,-4.0209,0,2,,-13.99
3.368000,-626.0312,-3.9780,0,2,,-13.99
3.370000,-626.0312,-3.9350,0,2,,-13.99
3.372000,-626.0312,-3.8919,0,2,,-13.99
3.374000,-626.0312,-3.8487,0,2,,-13.99
3.376000,-626.0312,-3.8054,0,2,,-13.99
3.378000,-626.0312,-3.7620,0,2,,-13.99
3.380000,-626.0312,-3.7186,0,2,,-13.99
3.382000,-626.0312,-3.6752,0,2,,-13.99
3.384000,-626.0312,-3.6317,0,2,,-13.99
3.386000,-626.0312,-3.5882,0,2,,-13.99
3.388000,-626.0312,-3.5445,0,2,,-13.99
3.390000,-626.0312,-3.5007,0,2,,-13.99
3.392000,-626.0312,-3.4569,0,2,,-13.99
3.394000,-626.0312,-3.4129,0,2,,-13.99
3.396000,-626.0312,-3.3690,0,2,,-13.99
3.398000,-626.0312,-3.3250,0,2,,-13.99
3.400000,-626.0312,-3.2810,0,2,,-13.99
3.402000,-626.0312,-3.2369,0,2,,-13.99
3.404000,-626.0312,-3.1929,0,2,,-13.99
3.406000,-626.0312,-3.1487,0,2,,-13.99
3.408000,-626.0312,-3.1045,0,2,,-13.99
3.410000,-626.0312,-3.0603,0,2,,-13.99
3.412000,-626.0312,-3.0159,0,2,,-13.99
3.414000,-626.0312,-2.9715,0,2,,-13.99
3.416000,-626.0312,-2.9271,0,2,,-13.99
3.418000,-626.0312,-2.8827,0,2,,-13.99
3.420000,-626.0312,-2.8383,0,2,,-13.99
3.422000,-626.0312,-2.7939,0,2,,-13.99
3.424000,-626.0312,-2.7495,0,2,,-13.99
3.426000,-626.0312,-2.7051,0,2,,-13.99
3.428000,-626.0312,-2.6606,0,2,,-13.99
3.430000,-626.0312,-2.6161,0,2,,-13.99
3.432000,-626.0312,-2.5715,0,2,,-13.99
3.434000,-626.0312,-2.5269,0,2,,-13.99
3.436000,-626.0312,-2.4823,0,2,,-13.99
3.438000,-626.0312,-2.4377,0,2,,-13.99
3.440000,-626.0312,-2.3932,0,2,,-13.99
3.442000,-626.0312,-2.3487,0,2,,-13.99
3.444000,-626.0312,-2.3042,0,2,,-13.99
3.446000,-626.0312,-2.2597,0,2,,-13.99
3.448000,-626.0312,-2.2152,0,2,,-13.99
3.450000,-626.0312,-2.1707,0,2,,-13.99
3.452000,-626.0312,-2.1261,0,2,,-13.99
3.454000,-626.0312,-2.0815,0,2,,-13.99
3.456000,-626.0312,-2.0370,0,2,,-13.99
3.458000,-626.0312,-1.9925,0,2,,-13.99
3.460000,-626.0312,-1.9481,0,2,,-13.99
3.462000,-626.0312,-1.9038,0,2,,-13.99
3.464000,-626.0312,-1.8595,0,2,,-13.99
3.466000,-626.0312,-1.8152,0,2,,-13.99
3.468000,-626.0312,-1.7709,0,2,,-13.99
3.470000,-626.0312,-1.7266,0,2,,-13.99
3.472000,-626.0312,-1.6823,0,2,,-13.99
3.474000,-626.0312,-1.6381,0,2,,-13.99
3.476000,-626.0312,-1.5938,0,2,,-13.99
3.478000,-626.0312,-1.5497,0,2,,-13.99
3.480000,-626.0312,-1.5057,0,2,,-13.99
3.482000,-626.0312,-1.4618,0,2,,-13.99
3.484000,-626.0312,-1.4179,0,2,,-13.99
3.486000,-626.0312,-1.3741,0,2,,-13.99
3.488000,-626.0312,-1.3304,0,2,,-13.99
3.490000,-626.0312,-1.2866,0,2,,-13.99
3.492000,-626.0312,-1.2428,0,2,,-13.99
3.494000,-626.0312,-1.1991,0,2,,-13.99
3.496000,-626.0312,-1.1554,0,2,,-13.99
3.498000,-626.0312,-1.1119,0,2,,-13.99
3.500000,-626.0312,-1.0685,0,2,,-13.99
3.502000,-626.0312,-1.0253,0,2,,-13.99
3.504000,-626.0312,-0.9822,0,2,,-13.99
3.506000,-626.0312,-0.9391,0,2,,-13.99
3.508000,-626.0312,-0.8961,0,2,,-13.99
3.510000,-626.0312,-0.8531,0,2,,-13.99
3.512000,-626.0312,-0.8101,0,2,,-13.99
3.514000,-626.0312,-0.7672,0,2,,-13.99
3.516000,-626.0312,-0.7244,0,2,,-13.99
3.518000,-626.0312,-0.6817,0,2,,-13.99
3.520000,-626.0312,-0.6393,0,2,,-13.99
3.522000,-626.0312,-0.5970,0,2,,-13.99
3.524000,-626.0312,-0.5548,0,2,,-13.99
3.526000,-626.0312,-0.5128,0,2,,-13.99
3.528000,-626.0312,-0.4707,0,2,,-13.99
3.530000,-626.0312,-0.4288,0,2,,-13.99
3.532000,-626.0312,-0.3868,0,2,,-13.99
3.534000,-626.0312,-0.3450,0,2,,-13.99
3.536000,-626.0312,-0.3033,0,2,,-13.99
3.538000,-626.0312,-0.2618,0,2,,-13.99
3.540000,-626.0312,-0.2205,0,2,,-13.99
3.542000,-626.0312,-0.1795,0,2,,-13.99
3.544000,-626.0312,-0.1385,0,2,,-13.99
3.546000,-626.0312,-0.0977,0,2,,-13.99
3.548000,-626.0312,-0.0570,0,2,,-13.99
3.550000,-626.0312,-0.0163,0,2,,-13.99
3.552000,-626.0312,0.0243,0,2,,-13.99
3.554000,-626.0312,0.0647,0,2,,-13.99
3.556000,-626.0312,0.1051,0,2,,-13.99
3.558000,-626.0312,0.1451,0,2,,-13.99
3.560000,-626.0312,0.1850,0,2,,-13.99
3.562000,-626.0312,0.2246,0,2,,-13.99
3.564000,-626.0312,0.2640,0,2,,-13.99
3.566000,-626.0312,0.3032,0,2,,-13.99
3.568000,-626.0312,0.3424,0,2,,-13.99
3.570000,-626.0312,0.3815,0,2,,-13.99
3.572000,-626.0312,0.4205,0,2,,-13.99
3.574000,-626.0312,0.4594,0,2,,-13.99
3.576000,-626.0312,0.4981,0,2,,-13.99
3.578000,-626.0312,0.5365,0,2,,-13.99
3.580000,-626.0312,0.5746,0,2,,-13.99
3.582000,-626.0312,0.6124,0,2,,-13.99
3.584000,-626.0312,0.6500,0,2,,-13.99
3.586000,-626.0312,0.6875,0,2,,-13.99
3.588000,-626.0312,0.7248,0,2,,-13.99
3.590000,-626.0312,0.7621,0,2,,-13.99
3.592000,-626.0312,0.7992,0,2,,-13.99
3.594000,-626.0312,0.8362,0,2,,-13.99
3.596000,-626.0312,0.8730,0,2,,-13.99
3.598000,-626.0312,0.9094,0,2,,-13.99
3.600000,-626.0312,0.9455,0,2,,-13.99
3.602000,-626.0312,0.9814,0,2,,-13.99
3.604000,-626.0312,1.0169,0,2,,-13.99
3.606000,-626.0312,1.0523,0,2,,-13.99
3.608000,-626.0312,1.0875,0,2,,-13.99
3.610000,-626.0312,1.1227,0,2,,-13.99
3.612000,-626.0312,1.1577,0,2,,-13.99
3.614000,-626.0312,1.1925,0,2,,-13.99
3.616000,-626.0312,1.2271,0,2,,-13.99
3.618000,-626.0312,1.2613,0,2,,-13.99
3.620000,-626.0312,1.2952,0,2,,-13.99
3.622000,-626.0312,1.3287,0,2,,-13.99
3.624000,-626.0312,1.3619,0,2,,-13.99
3.626000,-626.0312,1.3949,0,2,,-13.99
3.628000,-626.0312,1.4278,0,2,,-13.99
3.630000,-626.0312,1.4605,0,2,,-13.99
3.632000,-626.0312,1.4931,0,2,,-13.99
3.634000,-626.0312,1.5255,0,2,,-13.99
3.636000,-626.0312,1.5576,0,2,,-13.99
3.638000,-626.0312,1.5893,0,2,,-13.99
3.640000,-626.0312,1.6206,0,2,,-13.99
3.642000,-626.0312,1.6516,0,2,,-13.99
3.644000,-626.0312,1.6822,0,2,,-13.99
3.646000,-626.0312,1.7125,0,2,,-13.99
3.648000,-626.0312,1.7427,0,2,,-13.99
3.650000,-626.0312,1.7728,0,2,,-13.99
3.652000,-626.0312,1.8027,0,2,,-13.99
3.654000,-626.0312,1.8324,0,2,,-13.99
3.656000,-626.0312,1.8618,0,2,,-13.99
3.658000,-626.0312,1.8907,0,2,,-13.99
3.660000,-626.0312,1.9192,0,2,,-13.99
3.662000,-626.0312,1.9473,0,2,,-13.99
3.664000,-626.0312,1.9750,0,2,,-13.99
3.666000,-626.0312,2.0024,0,2,,-13.99
3.668000,-626.0312,2.0297,0,2,,-13.99
3.670000,-626.0312,2.0568,0,2,,-13.99
3.672000,-626.0312,2.0838,0,2,,-13.99
3.674000,-626.0312,2.1105,0,2,,-13.99
3.676000,-626.0312,2.1368,0,2,,-13.99
3.678000,-626.0312,2.1627,0,2,,-13.99
3.680000,-626.0312,2.1881,0,2,,-13.99
3.682000,-626.0312,2.2130,0,2,,-13.99
3.684000,-626.0312,2.2376,0,2,,-13.99
3.686000,-626.0312,2.2618,0,2,,-13.99
3.688000,-626.0312,2.2859,0,2,,-13.99
3.690000,-626.0312,2.3098,0,2,,-13.99
3.692000,-626.0312,2.3335,0,2,,-13.99
3.694000,-626.0312,2.3569,0,2,,-13.99
3.696000,-626.0312,2.3800,0,2,,-13.99
3.698000,-626.0312,2.4025,0,2,,-13.99
3.700000,-626.0312,2.4245,0,2,,-13.99
3.702000,-626.0312,2.4460,0,2,,-13.99
3.704000,-626.0312,2.4671,0,2,,-13.99
3.706000,-626.0312,2.4878,0,2,,-13.99
3.708000,-626.0312,2.5084,0,2,,-13.99
3.710000,-626.0312,2.5288,0,2,,-13.99
3.712000,-626.0312,2.5490,0,2,,-13.99
3.714000,-626.0312,2.5689,0,2,,-13.99
3.716000,-626.0312,2.5884,0,2,,-13.99
3.718000,-626.0312,2.6073,0,2,,-13.99
3.720000,-626.0312,2.6256,0,2,,-13.99
3.722000,-626.0312,2.6434,0,2,,-13.99
3.724000,-626.0312,2.6607,0,2,,-13.99
3.726000,-626.0312,2.6777,0,2,,-13.99
3.728000,-626.0312,2.6945,0,2,,-13.99
3.730000,-626.0312,2.7111,0,2,,-13.99
3.732000,-626.0312,2.7275,0,2,,-13.99
3.734000,-626.0312,2.7436,0,2,,-13.99
3.736000,-626.0312,2.7592,0,2,,-13.99
3.738000,-626.0312,2.7742,0,2,,-13.99
3.740000,-626.0312,2.7886,0,2,,-13.99
3.742000,-626.0312,2.8024,0,2,,-13.99
3.744000,-626.0312,2.8157,0,2,,-13.99
3.746000,-626.0312,2.8286,0,2,,-13.99
3.748000,-626.0312,2.8413,0,2,,-13.99
3.750000,-626.0312,2.8538,0,2,,-13.99
3.752000,-626.0312,2.8661,0,2,,-13.99
3.754000,-626.0312,2.8781,0,2,,-13.99
3.756000,-626.0312,2.8896,0,2,,-13.99
3.758000,-626.0312,2.9004,0,2,,-13.99
3.760000,-626.0312,2.9106,0,2,,-13.99
3.762000,-626.0312,2.9201,0,2,,-13.99
3.764000,-626.0312,2.9290,0,2,,-13.99
3.766000,-626.0312,2.9376,0,2,,-13.99
3.768000,-626.0312,2.9459,0,2,,-13.99
3.770000,-626.0312,2.9541,0,2,,-13.99
3.772000,-626.0312,2.9621,0,2,,-13.99
3.774000,-626.0312,2.9697,0,2,,-13.99
3.776000,-626.0312,2.9767,0,2,,-13.99
3.778000,-626.0312,2.9831,0,2,,-13.99
3.780000,-626.0312,2.9887,0,2,,-13.99
3.782000,-626.0312,2.9936,0,2,,-13.99
3.784000,-626.0312,2.9979,0,2,,-13.99
3.786000,-626.0312,3.0019,0,2,,-13.99
3.788000,-626.0312,3.0056,0,2,,-13.99
3.790000,-626.0312,3.0091,0,2,,-13.99
3.792000,-626.0312,3.0124,0,2,,-13.99
3.794000,-626.0312,3.0153,0,2,,-13.99
3.796000,-626.0312,3.0177,0,2,,-13.99
3.798000,-626.0312,3.0193,0,2,,-13.99
3.800000,-626.0312,3.0201,0,2,,-13.99
3.802000,-626.0312,3.0201,0,2,,-13.99
3.804000,-626.0312,3.0195,0,2,,-13.99
3.806000,-626.0312,3.0185,0,2,,-13.99
3.808000,-626.0312,3.0173,0,2,,-13.99
3.810000,-626.0312,3.0159,0,2,,-13.99
3.812000,-626.0312,3.0143,0,2,,-13.99
3.814000,-626.0312,3.0123,0,2,,-13.99
3.816000,-626.0312,3.0096,0,2,,-13.99
3.818000,-626.0312,3.0062,0,2,,-13.99
3.820000,-626.0312,3.0019,0,2,,-13.99
3.822000,-626.0312,2.9968,0,2,,-13.99
3.824000,-626.0312,2.9910,0,2,,-13.99
3.826000,-626.0312,2.9847,0,2,,-13.99
3.828000,-626.0312,2.9782,0,2,,-13.99
3.830000,-626.0312,2.9716,0,2,,-13.99
3.832000,-626.0312,2.9648,0,2,,-13.99
3.834000,-626.0312,2.9575,0,2,,-13.99
3.836000,-626.0312,2.9496,0,2,,-13.99
3.838000,-626.0312,2.9409,0,2,,-13.99
3.840000,-626.0312,2.9312,0,2,,-13.99
3.842000,-626.0312,2.9206,0,2,,-13.99
3.844000,-626.0312,2.9093,0,2,,-13.99
3.846000,-626.0312,2.8975,0,2,,-13.99
3.848000,-626.0312,2.8855,0,2,,-13.99
3.850000,-626.0312,2.8734,0,2,,-13.99
3.852000,-626.0312,2.8610,0,2,,-13.99
3.854000,-626.0312,2.8482,0,2,,-13.99
3.856000,-626.0312,2.8348,0,2,,-13.99
3.858000,-626.0312,2.8204,0,2,,-13.99
3.860000,-626.0312,2.8050,0,2,,-13.99
3.862000,-626.0312,2.7886,0,2,,-13.99
3.864000,-626.0312,2.7715,0,2,,-13.99
3.866000,-626.0312,2.7539,0,2,,-13.99
3.868000,-626.0312,2.7361,0,2,,-13.99
3.870000,-626.0312,2.7182,0,2,,-13.99
3.872000,-626.0312,2.7001,0,2,,-13.99
3.874000,-626.0312,2.6815,0,2,,-13.99
3.876000,-626.0312,2.6622,0,2,,-13.99
3.878000,-626.0312,2.6419,0,2,,-13.99
3.880000,-626.0312,2.6205,0,2,,-13.99
3.882000,-626.0312,2.5981,0,2,,-13.99
3.884000,-626.0312,2.5748,0,2,,-13.99
3.886000,-626.0312,2.5511,0,2,,-13.99
3.888000,-626.0312,2.5272,0,2,,-13.99
3.890000,-626.0312,2.5032,0,2,,-13.99
3.892000,-626.0312,2.4790,0,2,,-13.99
3.894000,-626.0312,2.4543,0,2,,-13.99
3.896000,-626.0312,2.4289,0,2,,-13.99
3.898000,-626.0312,2.4024,0,2,,-13.99
3.900000,-626.0312,2.3747,0,2,,-13.99
3.902000,-626.0312,2.3459,0,2,,-13.99
3.904000,-626.0312,2.3163,0,2,,-13.99
3.906000,-626.0312,2.2861,0,2,,-13.99
3.908000,-626.0312,2.2558,0,2,,-13.99
3.910000,-626.0312,2.2254,0,2,,-13.99
3.912000,-626.0312,2.1948,0,2,,-13.99
3.914000,-626.0312,2.1638,0,2,,-13.99
3.916000,-626.0312,2.1319,0,2,,-13.99
3.918000,-626.0312,2.0989,0,2,,-13.99
3.920000,-626.0312,2.0647,0,2,,-13.99
3.922000,-626.0312,2.0292,0,2,,-13.99
3.924000,-626.0312,1.9929,0,2,,-13.99
3.926000,-626.0312,1.9560,0,2,,-13.99
3.928000,-626.0312,1.9190,0,2,,-13.99
3.930000,-626.0312,1.8819,0,2,,-13.99
3.932000,-626.0312,1.8446,0,2,,-13.99
3.934000,-626.0312,1.8069,0,2,,-13.99
3.936000,-626.0312,1.7683,0,2,,-13.99
3.938000,-626.0312,1.7285,0,2,,-13.99
3.940000,-626.0312,1.6873,0,2,,-13.99
3.942000,-626.0312,1.6448,0,2,,-13.99
3.944000,-626.0312,1.6014,0,2,,-13.99
3.946000,-626.0312,1.5575,0,2,,-13.99
3.948000,-626.0312,1.5136,0,2,,-13.99
3.950000,-626.0312,1.4696,0,2,,-13.99
3.952000,-626.0312,1.4257,0,2,,-13.99
3.954000,-626.0312,1.3812,0,2,,-13.99
3.956000,-626.0312,1.3358,0,2,,-13.99
3.958000,-626.0312,1.2890,0,2,,-13.99
3.960000,-626.0312,1.2405,0,2,,-13.99
3.962000,-626.0312,1.6068,0,3,,-15.20
3.964000,-626.0312,1.6165,0,3,,-15.20
3.966000,-626.0312,1.6260,0,3,,-15.20
3.968000,-626.0312,1.6355,0,3,,-15.20
3.970000,-626.0312,1.6448,0,3,,-15.20
3.972000,-626.0312,1.6540,0,3,,-15.20
3.974000,-626.0312,1.6631,0,3,,-15.20
3.976000,-626.0312,1.6721,0,3,,-15.20
3.978000,-626.0312,1.6810,0,3,,-15.20
3.980000,-626.0312,1.6897,0,3,,-15.20
3.982000,-626.0312,1.6984,0,3,,-15.20
3.984000,-626.0312,1.7069,0,3,,-15.20
3.986000,-626.0312,1.7153,0,3,,-15.20
3.988000,-626.0312,1.7236,0,3,,-15.20
3.990000,-626.0312,1.7318,0,3,,-15.20
3.992000,-626.0312,1.7398,0,3,,-15.20
3.994000,-626.0312,1.7478,0,3,,-15.20
3.996000,-626.0312,1.7556,0,3,,-15.20
3.998000,-626.0312,1.7633,0,3,,-15.20
4.000000,-626.0312,1.7709,0,3,,-15.20
4.002000,-626.0312,1.7784,0,3,,-15.20
4.004000,-626.0312,1.7858,0,3,,-15.20
4.006000,-626.0312,1.7930,0,3,,-15.20
4.008000,-626.0312,1.8002,0,3,,-15.20
4.010000,-626.0312,1.8072,0,3,,-15.20
4.012000,-626.0312,1.8141,0,3,,-15.20
4.014000,-626.0312,1.8209,0,3,,-15.20
4.016000,-626.0312,1.8276,0,3,,-15.20
4.018000,-626.0312,1.8342,0,3,,-15.20
4.020000,-626.0312,1.8407,0,3,,-15.20
4.022000,-626.0312,1.8470,0,3,,-15.20
4.024000,-626.0312,1.8533,0,3,,-15.20
4.026000,-626.0312,1.8594,0,3,,-15.20
4.028000,-626.0312,1.8654,0,3,,-15.20
4.030000,-626.0312,1.8713,0,3,,-15.20
4.032000,-626.0312,1.8771,0,3,,-15.20
4.034000,-626.0312,1.8828,0,3,,-15.20
4.036000,-626.0312,1.8884,0,3,,-15.20
4.038000,-626.0312,1.8938,0,3,,-15.20
4.040000,-626.0312,1.8992,0,3,,-15.20
4.042000,-626.0312,1.9045,0,3,,-15.20
4.044000,-626.0312,1.9096,0,3,,-15.20
4.046000,-626.0312,1.9146,0,3,,-15.20
4.048000,-626.0312,1.9196,0,3,,-15.20
4.050000,-626.0312,1.9244,0,3,,-15.20
4.052000,-626.0312,1.9291,0,3,,-15.20
4.054000,-626.0312,1.9337,0,3,,-15.20
4.056000,-626.0312,1.9382,0,3,,-15.20
4.058000,-626.0312,1.9425,0,3,,-15.20
4.060000,-626.0312,1.9468,0,3,,-15.20
4.062000,-626.0312,1.9510,0,3,,-15.20
4.064000,-626.0312,1.9551,0,3,,-15.20
4.066000,-626.0312,1.9590,0,3,,-15.20
4.068000,-626.0312,1.9629,0,3,,-15.20
4.070000,-626.0312,1.9666,0,3,,-15.20
4.072000,-626.0312,1.9702,0,3,,-15.20
4.074000,-626.0312,1.9738,0,3,,-15.20
4.076000,-626.0312,1.9772,0,3,,-15.20
4.078000,-626.0312,1.9805,0,3,,-15.20
4.080000,-626.0312,1.9838,0,3,,-15.20
4.082000,-626.0312,1.9869,0,3,,-15.20
4.084000,-626.0312,1.9899,0,3,,-15.20
4.086000,-626.0312,1.9928,0,3,,-15.20
4.088000,-626.0312,1.9956,0,3,,-15.20
4.090000,-626.0312,1.9983,0,3,,-15.20
4.092000,-626.0312,2.0009,0,3,,-15.20
4.094000,-626.0312,2.0034,0,3,,-15.20
4.096000,-626.0312,2.0058,0,3,,-15.20
4.098000,-626.0312,2.0081,0,3,,-15.20
4.100000,-626.0312,2.0103,0,3,,-15.20
4.102000,-626.0312,2.0125,0,3,,-15.20
4.104000,-626.0312,2.0145,0,3,,-15.20
4.106000,-626.0312,2.0164,0,3,,-15.20
4.108000,-626.0312,2.0182,0,3,,-15.20
4.110000,-626.0312,2.0199,0,3,,-15.20
4.112000,-626.0312,2.0215,0,3,,-15.20
4.114000,-626.0312,2.0230,0,3,,-15.20
4.116000,-626.0312,2.0244,0,3,,-15.20
4.118000,-626.0312,2.0257,0,3,,-15.20
4.120000,-626.0312,2.0269,0,3,,-15.20
4.122000,-626.0312,2.0280,0,3,,-15.20
4.124000,-626.0312,2.0291,0,3,,-15.20
4.126000,-626.0312,2.0300,0,3,,-15.20
4.128000,-626.0312,2.0308,0,3,,-15.20
4.130000,-626.0312,2.0316,0,3,,-15.20
4.132000,-626.0312,2.0322,0,3,,-15.20
4.134000,-626.0312,2.0328,0,3,,-15.20
4.136000,-626.0312,2.0332,0,3,,-15.20
4.138000,-626.0312,2.0336,0,3,,-15.20
4.140000,-626.0312,2.0338,0,3,,-15.20
4.142000,-626.0312,2.0340,0,3,,-15.20
4.144000,-626.0312,2.0341,0,3,,-15.20
4.146000,-626.0312,2.0341,0,3,,-15.20
4.148000,-626.0312,2.0340,0,3,,-15.20
4.150000,-626.0312,2.0338,0,3,,-15.20
4.152000,-626.0312,2.0335,0,3,,-15.20
4.154000,-626.0312,2.0331,0,3,,-15.20
4.156000,-626.0312,2.0327,0,3,,-15.20
4.158000,-626.0312,2.0321,0,3,,-15.20
4.160000,-626.0312,2.0315,0,3,,-15.20
4.162000,-626.0312,2.0308,0,3,,-15.20
4.164000,-626.0312,2.0300,0,3,,-15.20
4.166000,-626.0312,2.0291,0,3,,-15.20
4.168000,-626.0312,2.0281,0,3,,-15.20
4.170000,-626.0312,2.0270,0,3,,-15.20
4.172000,-626.0312,2.0258,0,3,,-15.20
4.174000,-626.0312,2.0246,0,3,,-15.20
4.176000,-626.0312,2.0232,0,3,,-15.20
4.178000,-626.0312,2.0218,0,3,,-15.20
4.180000,-626.0312,2.0203,0,3,,-15.20
4.182000,-626.0312,2.0187,0,3,,-15.20
4.184000,-626.0312,2.0170,0,3,,-15.20
4.186000,-626.0312,2.0153,0,3,,-15.20
4.188000,-626.0312,2.0134,0,3,,-15.20
4.190000,-626.0312,2.0115,0,3,,-15.20
4.192000,-626.0312,2.0095,0,3,,-15.20
4.194000,-626.0312,2.0074,0,3,,-15.20
4.196000,-626.0312,2.0053,0,3,,-15.20
4.198000,-626.0312,2.0030,0,3,,-15.20
4.200000,-626.0312,2.0007,0,3,,-15.20
4.202000,-626.0312,1.9983,0,3,,-15.20
4.204000,-626.0312,1.9958,0,3,,-15.20
4.206000,-626.0312,1.9932,0,3,,-15.20
4.208000,-626.0312,1.9906,0,3,,-15.20
4.210000,-626.0312,1.9879,0,3,,-15.20
4.212000,-626.0312,1.9851,0,3,,-15.20
4.214000,-626.0312,1.9822,0,3,,-15.20
4.216000,-626.0312,1.9792,0,3,,-15.20
4.218000,-626.0312,1.9762,0,3,,-15.20
4.220000,-626.0312,1.9731,0,3,,-15.20
4.222000,-626.0312,1.9699,0,3,,-15.20
4.224000,-626.0312,1.9667,0,3,,-15.20
4.226000,-626.0312,1.9633,0,3,,-15.20
4.228000,-626.0312,1.9599,0,3,,-15.20
4.230000,-626.0312,1.9565,0,3,,-15.20
4.232000,-626.0312,1.9529,0,3,,-15.20
4.234000,-626.0312,1.9493,0,3,,-15.20
4.236000,-626.0312,1.9456,0,3,,-15.20
4.238000,-626.0312,1.9418,0,3,,-15.20
4.240000,-626.0312,1.9380,0,3,,-15.20
4.242000,-626.0312,1.9341,0,3,,-15.20
4.244000,-626.0312,1.9301,0,3,,-15.20
4.246000,-626.0312,1.9261,0,3,,-15.20
4.248000,-626.0312,1.9220,0,3,,-15.20
4.250000,-626.0312,1.9178,0,3,,-15.20
4.252000,-626.0312,1.9135,0,3,,-15.20
4.254000,-626.0312,1.9092,0,3,,-15.20
4.256000,-626.0312,1.9048,0,3,,-15.20
4.258000,-626.0312,1.9004,0,3,,-15.20
4.260000,-626.0312,1.8959,0,3,,-15.20
4.262000,-626.0312,1.8913,0,3,,-15.20
4.264000,-626.0312,1.8866,0,3,,-15.20
4.266000,-626.0312,1.8819,0,3,,-15.20
4.268000,-626.0312,1.8771,0,3,,-15.20
4.270000,-626.0312,1.8723,0,3,,-15.20
4.272000,-626.0312,1.8674,0,3,,-15.20
4.274000,-626.0312,1.8624,0,3,,-15.20
4.276000,-626.0312,1.8574,0,3,,-15.20
4.278000,-626.0312,1.8523,0,3,,-15.20
4.280000,-626.0312,1.8472,0,3,,-15.20
4.282000,-626.0312,1.8420,0,3,,-15.20
4.284000,-626.0312,1.8367,0,3,,-15.20
4.286000,-626.0312,1.8314,0,3,,-15.20
4.288000,-626.0312,1.8260,0,3,,-15.20
4.290000,-626.0312,1.8205,0,3,,-15.20
4.292000,-626.0312,1.8150,0,3,,-15.20
4.294000,-626.0312,1.8094,0,3,,-15.20
4.296000,-626.0312,1.8038,0,3,,-15.20
4.298000,-626.0312,1.7981,0,3,,-15.20
4.300000,-626.0312,1.7924,0,3,,-15.20
4.302000,-626.0312,1.7866,0,3,,-15.20
4.304000,-626.0312,1.7808,0,3,,-15.20
4.306000,-626.0312,1.7749,0,3,,-15.20
4.308000,-626.0312,1.7689,0,3,,-15.20
4.310000,-626.0312,1.7629,0,3,,-15.20
4.312000,-626.0312,1.7569,0,3,,-15.20
4.314000,-626.0312,1.7507,0,3,,-15.20
4.316000,-626.0312,1.7446,0,3,,-15.20
4.318000,-626.0312,1.7384,0,3,,-15.20
4.320000,-626.0312,1.7321,0,3,,-15.20
4.322000,-626.0312,1.7258,0,3,,-15.20
4.324000,-626.0312,1.7194,0,3,,-15.20
4.326000,-626.0312,1.7130,0,3,,-15.20
4.328000,-626.0312,1.7065,0,3,,-15.20
4.330000,-626.0312,1.7000,0,3,,-15.20
4.332000,-626.0312,1.6934,0,3,,-15.20
4.334000,-626.0312,1.6868,0,3,,-15.20
4.336000,-626.0312,1.6802,0,3,,-15.20
4.338000,-626.0312,1.6735,0,3,,-15.20
4.340000,-626.0312,1.6667,0,3,,-15.20
4.342000,-626.0312,1.6599,0,3,,-15.20
4.344000,-626.0312,1.6531,0,3,,-15.20
4.346000,-626.0312,1.6462,0,3,,-15.20
4.348000,-626.0312,1.6392,0,3,,-15.20
4.350000,-626.0312,1.6323,0,3,,-15.20
4.352000,-626.0312,1.6253,0,3,,-15.20
4.354000,-626.0312,1.6182,0,3,,-15.20
4.356000,-626.0312,1.6111,0,3,,-15.20
4.358000,-626.0312,1.6039,0,3,,-15.20
4.360000,-626.0312,1.5968,0,3,,-15.20
4.362000,-626.0312,1.5895,0,3,,-15.20
4.364000,-626.0312,1.5823,0,3,,-15.20
4.366000,-626.0312,1.5750,0,3,,-15.20
4.368000,-626.0312,1.5676,0,3,,-15.20
4.370000,-626.0312,1.5602,0,3,,-15.20
4.372000,-626.0312,1.5528,0,3,,-15.20
4.374000,-626.0312,1.5454,0,3,,-15.20
4.376000,-626.0312,1.5379,0,3,,-15.20
4.378000,-626.0312,1.5303,0,3,,-15.20
4.380000,-626.0312,1.5228,0,3,,-15.20
4.382000,-626.0312,1.5152,0,3,,-15.20
4.384000,-626.0312,1.5075,0,3,,-15.20
4.386000,-626.0312,1.4998,0,3,,-15.20
4.388000,-626.0312,1.4921,0,3,,-15.20
4.390000,-626.0312,1.4844,0,3,,-15.20
4.392000,-626.0312,1.4766,0,3,,-15.20
4.394000,-626.0312,1.4688,0,3,,-15.20
4.396000,-626.0312,1.4610,0,3,,-15.20
4.398000,-626.0312,1.4531,0,3,,-15.20
4.400000,-626.0312,1.4452,0,3,,-15.20
4.402000,-626.0312,1.4373,0,3,,-15.20
4.404000,-626.0312,1.4293,0,3,,-15.20
4.406000,-626.0312,1.4213,0,3,,-15.20
4.408000,-626.0312,1.4133,0,3,,-15.20
4.410000,-626.0312,1.4053,0,3,,-15.20
4.412000,-626.0312,1.3972,0,3,,-15.20
4.414000,-626.0312,1.3891,0,3,,-15.20
4.416000,-626.0312,1.3810,0,3,,-15.20
4.418000,-626.0312,1.3728,0,3,,-15.20
4.420000,-626.0312,1.3646,0,3,,-15.20
4.422000,-626.0312,1.3564,0,3,,-15.20
4.424000,-626.0312,1.3482,0,3,,-15.20
4.426000,-626.0312,1.3399,0,3,,-15.20
4.428000,-626.0312,1.3316,0,3,,-15.20
4.430000,-626.0312,1.3233,0,3,,-15.20
4.432000,-626.0312,1.3150,0,3,,-15.20
4.434000,-626.0312,1.3067,0,3,,-15.20
4.436000,-626.0312,1.2983,0,3,,-15.20
4.438000,-626.0312,1.2899,0,3,,-15.20
4.440000,-626.0312,1.2815,0,3,,-15.20
4.442000,-626.0312,1.2730,0,3,,-15.20
4.444000,-626.0312,1.2646,0,3,,-15.20
4.446000,-626.0312,1.2561,0,3,,-15.20
4.448000,-626.0312,1.2476,0,3,,-15.20
4.450000,-626.0312,1.2391,0,3,,-15.20
4.452000,-626.0312,1.2306,0,3,,-15.20
4.454000,-626.0312,1.2220,0,3,,-15.20
4.456000,-626.0312,1.2134,0,3,,-15.20
4.458000,-626.0312,1.2049,0,3,,-15.20
4.460000,-626.0312,1.1963,0,3,,-15.20
4.462000,-626.0312,1.1876,0,3,,-15.20
4.464000,-626.0312,1.1790,0,3,,-15.20
4.466000,-626.0312,1.1704,0,3,,-15.20
4.468000,-626.0312,1.1617,0,3,,-15.20
4.470000,-626.0312,1.1530,0,3,,-15.20
4.472000,-626.0312,1.1443,0,3,,-15.20
4.474000,-626.0312,1.1356,0,3,,-15.20
4.476000,-626.0312,1.1269,0,3,,-15.20
4.478000,-626.0312,1.1182,0,3,,-15.20
4.480000,-626.0312,1.1095,0,3,,-15.20
4.482000,-626.0312,1.1007,0,3,,-15.20
4.484000,-626.0312,1.0919,0,3,,-15.20
4.486000,-626.0312,1.0832,0,3,,-15.20
4.488000,-626.0312,1.0744,0,3,,-15.20
4.490000,-626.0312,1.0656,0,3,,-15.20
4.492000,-626.0312,1.0568,0,3,,-15.20
4.494000,-626.0312,1.0480,0,3,,-15.20
4.496000,-626.0312,1.0392,0,3,,-15.20
4.498000,-626.0312,1.0304,0,3,,-15.20
4.500000,-626.0312,1.0215,0,3,,-15.20
4.502000,-626.0312,1.0127,0,3,,-15.20
4.504000,-626.0312,1.0039,0,3,,-15.20
4.506000,-626.0312,0.9950,0,3,,-15.20
4.508000,-626.0312,0.9862,0,3,,-15.20
4.510000,-626.0312,0.9773,0,3,,-15.20
4.512000,-626.0312,0.9685,0,3,,-15.20
4.514000,-626.0312,0.9596,0,3,,-15.20
4.516000,-626.0312,0.9507,0,3,,-15.20
4.518000,-626.0312,0.9419,0,3,,-15.20
4.520000,-626.0312,0.9330,0,3,,-15.20
4.522000,-626.0312,0.9241,0,3,,-15.20
4.524000,-626.0312,0.9152,0,3,,-15.20
4.526000,-626.0312,0.9063,0,3,,-15.20
4.528000,-626.0312,0.8975,0,3,,-15.20
4.530000,-626.0312,0.8886,0,3,,-15.20
4.532000,-626.0312,0.8797,0,3,,-15.20
4.534000,-626.0312,0.8708,0,3,,-15.20
4.536000,-626.0312,0.8620,0,3,,-15.20
4.538000,-626.0312,0.8531,0,3,,-15.20
4.540000,-626.0312,0.8442,0,3,,-15.20
4.542000,-626.0312,0.8353,0,3,,-15.20
4.544000,-626.0312,0.8265,0,3,,-15.20
4.546000,-626.0312,0.8176,0,3,,-15.20
4.548000,-626.0312,0.8087,0,3,,-15.20
4.550000,-626.0312,0.7999,0,3,,-15.20
4.552000,-626.0312,0.7910,0,3,,-15.20
4.554000,-626.0312,0.7822,0,3,,-15.20
4.556000,-626.0312,0.7733,0,3,,-15.20
4.558000,-626.0312,0.7645,0,3,,-15.20
4.560000,-626.0312,0.7557,0,3,,-15.20
4.562000,-626.0312,0.7468,0,3,,-15.20
4.564000,-626.0312,0.7380,0,3,,-15.20
4.566000,-626.0312,0.7292,0,3,,-15.20
4.568000,-626.0312,0.7204,0,3,,-15.20
4.570000,-626.0312,0.7116,0,3,,-15.20
4.572000,-626.0312,0.7028,0,3,,-15.20
4.574000,-626.0312,0.6941,0,3,,-15.20
4.576000,-626.0312,0.6853,0,3,,-15.20
4.578000,-626.0312,0.6765,0,3,,-15.20
4.580000,-626.0312,0.6678,0,3,,-15.20
4.582000,-626.0312,0.6590,0,3,,-15.20
4.584000,-626.0312,0.6503,0,3,,-15.20
4.586000,-626.0312,0.6416,0,3,,-15.20
4.588000,-626.0312,0.6329,0,3,,-15.20
4.590000,-626.0312,0.6242,0,3,,-15.20
4.592000,-626.0312,0.6155,0,3,,-15.20
4.594000,-626.0312,0.6069,0,3,,-15.20
4.596000,-626.0312,0.5982,0,3,,-15.20
4.598000,-626.0312,0.5896,0,3,,-15.20
4.600000,-626.0312,0.5809,0,3,,-15.20
4.602000,-626.0312,0.5723,0,3,,-15.20
4.604000,-626.0312,0.5637,0,3,,-15.20
4.606000,-626.0312,0.5552,0,3,,-15.20
4.608000,-626.0312,0.5466,0,3,,-15.20
4.610000,-626.0312,0.5380,0,3,,-15.20
4.612000,-626.0312,0.5295,0,3,,-15.20
4.614000,-626.0312,0.5210,0,3,,-15.20
4.616000,-626.0312,0.5125,0,3,,-15.20
4.618000,-626.0312,0.5040,0,3,,-15.20
4.620000,-626.0312,0.4956,0,3,,-15.20
4.622000,-626.0312,0.4871,0,3,,-15.20
4.624000,-626.0312,0.4787,0,3,,-15.20
4.626000,-626.0312,0.4703,0,3,,-15.20
4.628000,-626.0312,0.4619,0,3,,-15.20
4.630000,-626.0312,0.4535,0,3,,-15.20
4.632000,-626.0312,0.4452,0,3,,-15.20
4.634000,-626.0312,0.4368,0,3,,-15.20
4.636000,-626.0312,0.4285,0,3,,-15.20
4.638000,-626.0312,0.4202,0,3,,-15.20
4.640000,-626.0312,0.4120,0,3,,-15.20
4.642000,-626.0312,0.4037,0,3,,-15.20
4.644000,-626.0312,0.3955,0,3,,-15.20
4.646000,-626.0312,0.3873,0,3,,-15.20
4.648000,-626.0312,0.3791,0,3,,-15.20
4.650000,-626.0312,0.3710,0,3,,-15.20
4.652000,-626.0312,0.3628,0,3,,-15.20
4.654000,-626.0312,0.3547,0,3,,-15.20
4.656000,-626.0312,0.3467,0,3,,-15.20
4.658000,-626.0312,0.3386,0,3,,-15.20
4.660000,-626.0312,0.3306,0,3,,-15.20
4.662000,-626.0312,0.3226,0,3,,-15.20
4.664000,-626.0312,0.3146,0,3,,-15.20
4.666000,-626.0312,0.3066,0,3,,-15.20
4.668000,-626.0312,0.2987,0,3,,-15.20
4.670000,-626.0312,0.2908,0,3,,-15.20
4.672000,-626.0312,0.2829,0,3,,-15.20
4.674000,-626.0312,0.2750,0,3,,-15.20
4.676000,-626.0312,0.2672,0,3,,-15.20
4.678000,-626.0312,0.2594,0,3,,-15.20
4.680000,-626.0312,0.2517,0,3,,-15.20
4.682000,-626.0312,0.2439,0,3,,-15.20
4.684000,-626.0312,0.2362,0,3,,-15.20
4.686000,-626.0312,0.2285,0,3,,-15.20
4.688000,-626.0312,0.2209,0,3,,-15.20
4.690000,-626.0312,0.2132,0,3,,-15.20
4.692000,-626.0312,0.2056,0,3,,-15.20
4.694000,-626.0312,0.1981,0,3,,-15.20
4.696000,-626.0312,0.1905,0,3,,-15.20
4.698000,-626.0312,0.1830,0,3,,-15.20
4.700000,-626.0312,0.1755,0,3,,-15.20
4.702000,-626.0312,0.1681,0,3,,-15.20
4.704000,-626.0312,0.1607,0,3,,-15.20
4.706000,-626.0312,0.1533,0,3,,-15.20
4.708000,-626.0312,0.1460,0,3,,-15.20
4.710000,-626.0312,0.1386,0,3,,-15.20
4.712000,-626.0312,0.1314,0,3,,-15.20
4.714000,-626.0312,0.1241,0,3,,-15.20
4.716000,-626.0312,0.1169,0,3,,-15.20
4.718000,-626.0312,0.1097,0,3,,-15.20
4.720000,-626.0312,0.1025,0,3,,-15.20
4.722000,-626.0312,0.0954,0,3,,-15.20
4.724000,-626.0312,0.0883,0,3,,-15.20
4.726000,-626.0312,0.0813,0,3,,-15.20
4.728000,-626.0312,0.0743,0,3,,-15.20
4.730000,-626.0312,0.0673,0,3,,-15.20
4.732000,-626.0312,0.0603,0,3,,-15.20
4.734000,-626.0312,0.0534,0,3,,-15.20
4.736000,-626.0312,0.0465,0,3,,-15.20
4.738000,-626.0312,0.0397,0,3,,-15.20
4.740000,-626.0312,0.0329,0,3,,-15.20
4.742000,-626.0312,0.0261,0,3,,-15.20
4.744000,-626.0312,0.0194,0,3,,-15.20
4.746000,-626.0312,0.0127,0,3,,-15.20
4.748000,-626.0312,0.0060,0,3,,-15.20
4.750000,-626.0312,-0.0006,0,3,,-15.20
4.752000,-626.0312,-0.0072,0,3,,-15.20
4.754000,-626.0312,-0.0137,0,3,,-15.20
4.756000,-626.0312,-0.0202,0,3,,-15.20
4.758000,-626.0312,-0.0267,0,3,,-15.20
4.760000,-626.0312,-0.0331,0,3,,-15.20
4.762000,-626.0312,-0.0395,0,3,,-15.20
4.764000,-626.0312,-0.0459,0,3,,-15.20
4.766000,-626.0312,-0.0522,0,3,,-15.20
4.768000,-626.0312,-0.0585,0,3,,-15.20
4.770000,-626.0312,-0.0647,0,3,,-15.20
4.772000,-626.0312,-0.0709,0,3,,-15.20
4.774000,-626.0312,-0.0771,0,3,,-15.20
4.776000,-626.0312,-0.0832,0,3,,-15.20
4.778000,-626.0312,-0.0893,0,3,,-15.20
4.780000,-626.0312,-0.0953,0,3,,-15.20
4.782000,-626.0312,-0.1013,0,3,,-15.20
4.784000,-626.0312,-0.1073,0,3,,-15.20
4.786000,-626.0312,-0.1132,0,3,,-15.20
4.788000,-626.0312,-0.1191,0,3,,-15.20
4.790000,-626.0312,-0.1249,0,3,,-15.20
4.792000,-626.0312,-0.1307,0,3,,-15.20
4.794000,-626.0312,-0.1364,0,3,,-15.20
4.796000,-626.0312,-0.1422,0,3,,-15.20
4.798000,-626.0312,-0.1478,0,3,,-15.20
4.800000,-626.0312,-0.1534,0,3,,-15.20
4.802000,-626.0312,-0.1590,0,3,,-15.20
4.804000,-626.0312,-0.1646,0,3,,-15.20
4.806000,-626.0312,-0.1701,0,3,,-15.20
4.808000,-626.0312,-0.1755,0,3,,-15.20
4.810000,-626.0312,-0.1810,0,3,,-15.20
4.812000,-626.0312,-0.1863,0,3,,-15.20
4.814000,-626.0312,-0.1917,0,3,,-15.20
4.816000,-626.0312,-0.1969,0,3,,-15.20
4.818000,-626.0312,-0.2022,0,3,,-15.20
4.820000,-626.0312,-0.2074,0,3,,-15.20
4.822000,-626.0312,-0.2125,0,3,,-15.20
4.824000,-626.0312,-0.2176,0,3,,-15.20
4.826000,-626.0312,-0.2227,0,3,,-15.20
4.828000,-626.0312,-0.2277,0,3,,-15.20
4.830000,-626.0312,-0.2327,0,3,,-15.20
4.832000,-626.0312,-0.2377,0,3,,-15.20
4.834000,-626.0312,-0.2425,0,3,,-15.20
4.836000,-626.0312,-0.2474,0,3,,-15.20
4.838000,-626.0312,-0.2522,0,3,,-15.20
4.840000,-626.0312,-0.2569,0,3,,-15.20
4.842000,-626.0312,-0.2617,0,3,,-15.20
4.844000,-626.0312,-0.2663,0,3,,-15.20
4.846000,-626.0312,-0.2709,0,3,,-15.20
4.848000,-626.0312,-0.2755,0,3,,-15.20
4.850000,-626.0312,-0.2801,0,3,,-15.20
4.852000,-626.0312,-0.2845,0,3,,-15.20
4.854000,-626.0312,-0.2890,0,3,,-15.20
4.856000,-626.0312,-0.2934,0,3,,-15.20
4.858000,-626.0312,-0.2977,0,3,,-15.20
4.860000,-626.0312,-0.3020,0,3,,-15.20
4.862000,-626.0312,-0.3063,0,3,,-15.20
4.864000,-626.0312,-0.3105,0,3,,-15.20
4.866000,-626.0312,-0.3146,0,3,,-15.20
4.868000,-626.0312,-0.3188,0,3,,-15.20
4.870000,-626.0312,-0.3228,0,3,,-15.20
4.872000,-626.0312,-0.3269,0,3,,-15.20
4.874000,-626.0312,-0.3308,0,3,,-15.20
4.876000,-626.0312,-0.3348,0,3,,-15.20
4.878000,-626.0312,-0.3386,0,3,,-15.20
4.880000,-626.0312,-0.3425,0,3,,-15.20
4.882000,-626.0312,-0.3463,0,3,,-15.20
4.884000,-626.0312,-0.3500,0,3,,-15.20
4.886000,-626.0312,-0.3537,0,3,,-15.20
4.888000,-626.0312,-0.3574,0,3,,-15.20
4.890000,-626.0312,-0.3610,0,3,,-15.20
4.892000,-626.0312,-0.3645,0,3,,-15.20
4.894000,-626.0312,-0.3680,0,3,,-15.20
4.896000,-626.0312,-0.3715,0,3,,-15.20
4.898000,-626.0312,-0.3749,0,3,,-15.20
4.900000,-626.0312,-0.3783,0,3,,-15.20
4.902000,-626.0312,-0.3816,0,3,,-15.20
4.904000,-626.0312,-0.3849,0,3,,-15.20
4.906000,-626.0312,-0.3881,0,3,,-15.20
4.908000,-626.0312,-0.3913,0,3,,-15.20
4.910000,-626.0312,-0.3944,0,3,,-15.20
4.912000,-626.0312,-0.3975,0,3,,-15.20
4.914000,-626.0312,-0.4005,0,3,,-15.20
4.916000,-626.0312,-0.4035,0,3,,-15.20
4.918000,-626.0312,-0.4064,0,3,,-15.20
4.920000,-626.0312,-0.4093,0,3,,-15.20
4.922000,-626.0312,-0.4122,0,3,,-15.20
4.924000,-626.0312,-0.4150,0,3,,-15.20
4.926000,-626.0312,-0.4177,0,3,,-15.20
4.928000,-626.0312,-0.4205,0,3,,-15.20
4.930000,-626.0312,-0.4231,0,3,,-15.20
4.932000,-626.0312,-0.4257,0,3,,-15.20
4.934000,-626.0312,-0.4283,0,3,,-15.20
4.936000,-626.0312,-0.4308,0,3,,-15.20
4.938000,-626.0312,-0.4332,0,3,,-15.20
4.940000,-626.0312,-0.4357,0,3,,-15.20
4.942000,-626.0312,-0.4380,0,3,,-15.20
4.944000,-626.0312,-0.4404,0,3,,-15.20
4.946000,-626.0312,-0.4426,0,3,,-15.20
4.948000,-626.0312,-0.4449,0,3,,-15.20
4.950000,-626.0312,-0.4471,0,3,,-15.20
4.952000,-626.0312,-0.4492,0,3,,-15.20
4.954000,-626.0312,-0.4513,0,3,,-15.20
4.956000,-626.0312,-0.4533,0,3,,-15.20
4.958000,-626.0312,-0.4553,0,3,,-15.20
4.960000,-626.0312,-0.4572,0,3,,-15.20
4.962000,-626.0312,-0.4591,0,3,,-15.20
4.964000,-626.0312,-0.4610,0,3,,-15.20
4.966000,-626.0312,-0.4628,0,3,,-15.20
4.968000,-626.0312,-0.4645,0,3,,-15.20
4.970000,-626.0312,-0.4663,0,3,,-15.20
4.972000,-626.0312,-0.4679,0,3,,-15.20
4.974000,-626.0312,-0.4695,0,3,,-15.20
4.976000,-626.0312,-0.4711,0,3,,-15.20
4.978000,-626.0312,-0.4726,0,3,,-15.20
4.980000,-626.0312,-0.4741,0,3,,-15.20
4.982000,-626.0312,-0.4755,0,3,,-15.20
4.984000,-626.0312,-0.4769,0,3,,-15.20
4.986000,-626.0312,-0.4782,0,3,,-15.20
4.988000,-626.0312,-0.4795,0,3,,-15.20
4.990000,-626.0312,-0.4808,0,3,,-15.20
4.992000,-626.0312,-0.4820,0,3,,-15.20
4.994000,-626.0312,-0.4831,0,3,,-15.20
4.996000,-626.0312,-0.4842,0,3,,-15.20
4.998000,-626.0312,-0.4852,0,3,,-15.20
5.000000,-626.0312,-0.4863,0,3,,-15.20
5.002000,-626.0312,-0.4872,0,3,,-15.20
5.004000,-626.0312,-0.4881,0,3,,-15.20
5.006000,-626.0312,-0.4890,0,3,,-15.20
5.008000,-626.0312,-0.4899,0,3,,-15.20
5.010000,-626.0312,-0.4906,0,3,,-15.20
5.012000,-626.0312,-0.4914,0,3,,-15.20
5.014000,-626.0312,-0.4921,0,3,,-15.20
5.016000,-626.0312,-0.4927,0,3,,-15.20
5.018000,-626.0312,-0.4933,0,3,,-15.20
5.020000,-626.0312,-0.4939,0,3,,-15.20
5.022000,-626.0312,-0.4944,0,3,,-15.20
5.024000,-626.0312,-0.4948,0,3,,-15.20
5.026000,-626.0312,-0.4953,0,3,,-15.20
5.028000,-626.0312,-0.4957,0,3,,-15.20
5.030000,-626.0312,-0.4960,0,3,,-15.20
5.032000,-626.0312,-0.4963,0,3,,-15.20
5.034000,-626.0312,-0.4965,0,3,,-15.20
5.036000,-626.0312,-0.4967,0,3,,-15.20
5.038000,-626.0312,-0.4969,0,3,,-15.20
5.040000,-626.0312,-0.4970,0,3,,-15.20
5.042000,-626.0312,-0.4970,0,3,,-15.20
5.044000,-626.0312,-0.4971,0,3,,-15.20
5.046000,-626.0312,-0.4971,0,3,,-15.20
5.048000,-626.0312,-0.4970,0,3,,-15.20
5.050000,-626.0312,-0.4969,0,3,,-15.20
5.052000,-626.0312,-0.4968,0,3,,-15.20
5.054000,-626.0312,-0.4966,0,3,,-15.20
5.056000,-626.0312,-0.4963,0,3,,-15.20
5.058000,-626.0312,-0.4961,0,3,,-15.20
5.060000,-626.0312,-0.4957,0,3,,-15.20
5.062000,-626.0312,-0.4954,0,3,,-15.20
5.064000,-626.0312,-0.4950,0,3,,-15.20
5.066000,-626.0312,-0.4946,0,3,,-15.20
5.068000,-626.0312,-0.4941,0,3,,-15.20
5.070000,-626.0312,-0.4936,0,3,,-15.20
5.072000,-626.0312,-0.4930,0,3,,-15.20
5.074000,-626.0312,-0.4924,0,3,,-15.20
5.076000,-626.0312,-0.4918,0,3,,-15.20
5.078000,-626.0312,-0.4911,0,3,,-15.20
5.080000,-626.0312,-0.4903,0,3,,-15.20
5.082000,-626.0312,-0.4896,0,3,,-15.20
5.084000,-626.0312,-0.4888,0,3,,-15.20
5.086000,-626.0312,-0.4880,0,3,,-15.20
5.088000,-626.0312,-0.4871,0,3,,-15.20
5.090000,-626.0312,-0.4862,0,3,,-15.20
5.092000,-626.0312,-0.4852,0,3,,-15.20
5.094000,-626.0312,-0.4842,0,3,,-15.20
5.096000,-626.0312,-0.4831,0,3,,-15.20
5.098000,-626.0312,-0.4821,0,3,,-15.20
5.100000,-626.0312,-0.4809,0,3,,-15.20
5.102000,-626.0312,-0.4798,0,3,,-15.20
5.104000,-626.0312,-0.4786,0,3,,-15.20
5.106000,-626.0312,-0.4774,0,3,,-15.20
5.108000,-626.0312,-0.4762,0,3,,-15.20
5.110000,-626.0312,-0.4749,0,3,,-15.20
5.112000,-626.0312,-0.4735,0,3,,-15.20
5.114000,-626.0312,-0.4721,0,3,,-15.20
5.116000,-626.0312,-0.4707,0,3,,-15.20
5.118000,-626.0312,-0.4693,0,3,,-15.20
5.120000,-626.0312,-0.4678,0,3,,-15.20
5.122000,-626.0312,-0.4663,0,3,,-15.20
5.124000,-626.0312,-0.4647,0,3,,-15.20
5.126000,-626.0312,-0.4632,0,3,,-15.20
5.128000,-626.0312,-0.4615,0,3,,-15.20
5.130000,-626.0312,-0.4599,0,3,,-15.20
5.132000,-626.0312,-0.4582,0,3,,-15.20
5.134000,-626.0312,-0.4565,0,3,,-15.20
5.136000,-626.0312,-0.4547,0,3,,-15.20
5.138000,-626.0312,-0.4529,0,3,,-15.20
5.140000,-626.0312,-0.4511,0,3,,-15.20
5.142000,-626.0312,-0.4492,0,3,,-15.20
5.144000,-626.0312,-0.4474,0,3,,-15.20
5.146000,-626.0312,-0.4455,0,3,,-15.20
5.148000,-626.0312,-0.4435,0,3,,-15.20
5.150000,-626.0312,-0.4415,0,3,,-15.20
5.152000,-626.0312,-0.4395,0,3,,-15.20
5.154000,-626.0312,-0.4375,0,3,,-15.20
5.156000,-626.0312,-0.4354,0,3,,-15.20
5.158000,-626.0312,-0.4333,0,3,,-15.20
5.160000,-626.0312,-0.4311,0,3,,-15.20
5.162000,-626.0312,-0.4290,0,3,,-15.20
5.164000,-626.0312,-0.4268,0,3,,-15.20
5.166000,-626.0312,-0.4246,0,3,,-15.20
5.168000,-626.0312,-0.4223,0,3,,-15.20
5.170000,-626.0312,-0.4201,0,3,,-15.20
5.172000,-626.0312,-0.4178,0,3,,-15.20
5.174000,-626.0312,-0.4154,0,3,,-15.20
5.176000,-626.0312,-0.4130,0,3,,-15.20
5.178000,-626.0312,-0.4106,0,3,,-15.20
5.180000,-626.0312,-0.4082,0,3,,-15.20
5.182000,-626.0312,-0.4058,0,3,,-15.20
5.184000,-626.0312,-0.4033,0,3,,-15.20
5.186000,-626.0312,-0.4008,0,3,,-15.20
5.188000,-626.0312,-0.3983,0,3,,-15.20
5.190000,-626.0312,-0.3958,0,3,,-15.20
5.192000,-626.0312,-0.3932,0,3,,-15.20
5.194000,-626.0312,-0.3906,0,3,,-15.20
5.196000,-626.0312,-0.3880,0,3,,-15.20
5.198000,-626.0312,-0.3853,0,3,,-15.20
5.200000,-626.0312,-0.3826,0,3,,-15.20
5.202000,-626.0312,-0.3800,0,3,,-15.20
5.204000,-626.0312,-0.3773,0,3,,-15.20
5.206000,-626.0312,-0.3746,0,3,,-15.20
5.208000,-626.0312,-0.3718,0,3,,-15.20
5.210000,-626.0312,-0.3691,0,3,,-15.20
5.212000,-626.0312,-0.3663,0,3,,-15.20
5.214000,-626.0312,-0.3634,0,3,,-15.20
5.216000,-626.0312,-0.3606,0,3,,-15.20
5.218000,-626.0312,-0.3577,0,3,,-15.20
5.220000,-626.0312,-0.3548,0,3,,-15.20
5.222000,-626.0312,-0.3519,0,3,,-15.20
5.224000,-626.0312,-0.3491,0,3,,-15.20
5.226000,-626.0312,-0.3461,0,3,,-15.20
5.228000,-626.0312,-0.3432,0,3,,-15.20
5.230000,-626.0312,-0.3403,0,3,,-15.20
5.232000,-626.0312,-0.3373,0,3,,-15.20
5.234000,-626.0312,-0.3343,0,3,,-15.20
5.236000,-626.0312,-0.3312,0,3,,-15.20
5.238000,-626.0312,-0.3282,0,3,,-15.20
5.240000,-626.0312,-0.3251,0,3,,-15.20
5.242000,-626.0312,-0.3221,0,3,,-15.20
5.244000,-626.0312,-0.3190,0,3,,-15.20
5.246000,-626.0312,-0.3159,0,3,,-15.20
5.248000,-626.0312,-0.3129,0,3,,-15.20
5.250000,-626.0312,-0.3098,0,3,,-15.20
5.252000,-626.0312,-0.3066,0,3,,-15.20
5.254000,-626.0312,-0.3035,0,3,,-15.20
5.256000,-626.0312,-0.3003,0,3,,-15.20
5.258000,-626.0312,-0.2971,0,3,,-15.20
5.260000,-626.0312,-0.2939,0,3,,-15.20
5.262000,-626.0312,-0.2907,0,3,,-15.20
5.264000,-626.0312,-0.2876,0,3,,-15.20
5.266000,-626.0312,-0.2844,0,3,,-15.20
5.268000,-626.0312,-0.2812,0,3,,-15.20
5.270000,-626.0312,-0.2780,0,3,,-15.20
5.272000,-626.0312,-0.2747,0,3,,-15.20
5.274000,-626.0312,-0.2715,0,3,,-15.20
5.276000,-626.0312,-0.2682,0,3,,-15.20
5.278000,-626.0312,-0.2649,0,3,,-15.20
5.280000,-626.0312,-0.2617,0,3,,-15.20
5.282000,-626.0312,-0.2584,0,3,,-15.20
5.284000,-626.0312,-0.2552,0,3,,-15.20
5.286000,-626.0312,-0.2519,0,3,,-15.20
5.288000,-626.0312,-0.2487,0,3,,-15.20
5.290000,-626.0312,-0.2454,0,3,,-15.20
5.292000,-626.0312,-0.2421,0,3,,-15.20
5.294000,-626.0312,-0.2388,0,3,,-15.20
5.296000,-626.0312,-0.2354,0,3,,-15.20
5.298000,-626.0312,-0.2321,0,3,,-15.20
5.300000,-626.0312,-0.2288,0,3,,-15.20
5.302000,-626.0312,-0.2255,0,3,,-15.20
5.304000,-626.0312,-0.2223,0,3,,-15.20
5.306000,-626.0312,-0.2190,0,3,,-15.20
5.308000,-626.0312,-0.2158,0,3,,-15.20
5.310000,-626.0312,-0.2125,0,3,,-15.20
5.312000,-626.0312,-0.2092,0,3,,-15.20
5.314000,-626.0312,-0.2058,0,3,,-15.20
5.316000,-626.0312,-0.2025,0,3,,-15.20
5.318000,-626.0312,-0.1992,0,3,,-15.20
5.320000,-626.0312,-0.1959,0,3,,-15.20
5.322000,-626.0312,-0.1926,0,3,,-15.20
5.324000,-626.0312,-0.1894,0,3,,-15.20
5.326000,-626.0312,-0.1862,0,3,,-15.20
5.328000,-626.0312,-0.1830,0,3,,-15.20
5.330000,-626.0312,-0.1797,0,3,,-15.20
5.332000,-626.0312,-0.1764,0,3,,-15.20
5.334000,-626.0312,-0.1732,0,3,,-15.20
5.336000,-626.0312,-0.1699,0,3,,-15.20
5.338000,-626.0312,-0.1666,0,3,,-15.20
5.340000,-626.0312,-0.1634,0,3,,-15.20
5.342000,-626.0312,-0.1602,0,3,,-15.20
5.344000,-626.0312,-0.1571,0,3,,-15.20
5.346000,-626.0312,-0.1539,0,3,,-15.20
5.348000,-626.0312,-0.1508,0,3,,-15.20
5.350000,-626.0312,-0.1477,0,3,,-15.20
5.352000,-626.0312,-0.1445,0,3,,-15.20
5.354000,-626.0312,-0.1413,0,3,,-15.20
5.356000,-626.0312,-0.1381,0,3,,-15.20
5.358000,-626.0312,-0.1350,0,3,,-15.20
5.360000,-626.0312,-0.1319,0,3,,-15.20
5.362000,-626.0312,-0.1288,0,3,,-15.20
5.364000,-626.0312,-0.1258,0,3,,-15.20
5.366000,-626.0312,-0.1228,0,3,,-15.20
5.368000,-626.0312,-0.1199,0,3,,-15.20
5.370000,-626.0312,-0.1169,0,3,,-15.20
5.372000,-626.0312,-0.1139,0,3,,-15.20
5.374000,-626.0312,-0.1108,0,3,,-15.20
5.376000,-626.0312,-0.1078,0,3,,-15.20
5.378000,-626.0312,-0.1049,0,3,,-15.20
5.380000,-626.0312,-0.1019,0,3,,-15.20
5.382000,-626.0312,-0.0991,0,3,,-15.20
5.384000,-626.0312,-0.0963,0,3,,-15.20
5.386000,-626.0312,-0.0935,0,3,,-15.20
5.388000,-626.0312,-0.0907,0,3,,-15.20
5.390000,-626.0312,-0.0879,0,3,,-15.20
5.392000,-626.0312,-0.0851,0,3,,-15.20
5.394000,-626.0312,-0.0824,0,3,,-15.20
5.396000,-626.0312,-0.0796,0,3,,-15.20
5.398000,-626.0312,-0.0768,0,3,,-15.20
5.400000,-626.0312,-0.0741,0,3,,-15.20
5.402000,-626.0312,-0.0715,0,3,,-15.20
5.404000,-626.0312,-0.0690,0,3,,-15.20
5.406000,-626.0312,-0.0665,0,3,,-15.20
5.408000,-626.0312,-0.0640,0,3,,-15.20
5.410000,-626.0312,-0.0615,0,3,,-15.20
5.412000,-626.0312,-0.0590,0,3,,-15.20
5.414000,-626.0312,-0.0565,0,3,,-15.20
5.416000,-626.0312,-0.0540,0,3,,-15.20
5.418000,-626.0312,-0.0515,0,3,,-15.20
5.420000,-626.0312,-0.0491,0,3,,-15.20
5.422000,-626.0312,-0.0468,0,3,,-15.20
5.424000,-626.0312,-0.0446,0,3,,-15.20
5.426000,-626.0312,-0.0425,0,3,,-15.20
5.428000,-626.0312,-0.0403,0,3,,-15.20
5.430000,-626.0312,-0.0381,0,3,,-15.20
5.432000,-626.0312,-0.0360,0,3,,-15.20
5.434000,-626.0312,-0.4974,0,4,,-16.42
5.436000,-626.0312,-0.4957,0,4,,-16.42
5.438000,-626.0312,-0.4940,0,4,,-16.42
5.440000,-626.0312,-0.4923,0,4,,-16.42
5.442000,-626.0312,-0.4906,0,4,,-16.42
5.444000,-626.0312,-0.4888,0,4,,-16.42
5.446000,-626.0312,-0.4871,0,4,,-16.42
5.448000,-626.0312,-0.4853,0,4,,-16.42
5.450000,-626.0312,-0.4835,0,4,,-16.42
5.452000,-626.0312,-0.4817,0,4,,-16.42
5.454000,-626.0312,-0.4799,0,4,,-16.42
5.456000,-626.0312,-0.4781,0,4,,-16.42
5.458000,-626.0312,-0.4763,0,4,,-16.42
5.460000,-626.0312,-0.4745,0,4,,-16.42
5.462000,-626.0312,-0.4726,0,4,,-16.42
5.464000,-626.0312,-0.4708,0,4,,-16.42
5.466000,-626.0312,-0.4689,0,4,,-16.42
5.468000,-626.0312,-0.4670,0,4,,-16.42
5.470000,-626.0312,-0.4651,0,4,,-16.42
5.472000,-626.0312,-0.4632,0,4,,-16.42
5.474000,-626.0312,-0.4613,0,4,,-16.42
5.476000,-626.0312,-0.4594,0,4,,-16.42
5.478000,-626.0312,-0.4575,0,4,,-16.42
5.480000,-626.0312,-0.4556,0,4,,-16.42
5.482000,-626.0312,-0.4536,0,4,,-16.42
5.484000,-626.0312,-0.4517,0,4,,-16.42
5.486000,-626.0312,-0.4497,0,4,,-16.42
5.488000,-626.0312,-0.4477,0,4,,-16.42
5.490000,-626.0312,-0.4457,0,4,,-16.42
5.492000,-626.0312,-0.4437,0,4,,-16.42
5.494000,-626.0312,-0.4418,0,4,,-16.42
5.496000,-626.0312,-0.4397,0,4,,-16.42
5.498000,-626.0312,-0.4377,0,4,,-16.42
5.500000,-626.0312,-0.4357,0,4,,-16.42
5.502000,-626.0312,-0.4337,0,4,,-16.42
5.504000,-626.0312,-0.4316,0,4,,-16.42
5.506000,-626.0312,-0.4296,0,4,,-16.42
5.508000,-626.0312,-0.4275,0,4,,-16.42
5.510000,-626.0312,-0.4255,0,4,,-16.42
5.512000,-626.0312,-0.4234,0,4,,-16.42
5.514000,-626.0312,-0.4213,0,4,,-16.42
5.516000,-626.0312,-0.4192,0,4,,-16.42
5.518000,-626.0312,-0.4171,0,4,,-16.42
5.520000,-626.0312,-0.4150,0,4,,-16.42
5.522000,-626.0312,-0.4129,0,4,,-16.42
5.524000,-626.0312,-0.4108,0,4,,-16.42
5.526000,-626.0312,-0.4087,0,4,,-16.42
5.528000,-626.0312,-0.4066,0,4,,-16.42
5.530000,-626.0312,-0.4044,0,4,,-16.42
5.532000,-626.0312,-0.4023,0,4,,-16.42
5.534000,-626.0312,-0.4002,0,4,,-16.42
5.536000,-626.0312,-0.3980,0,4,,-16.42
5.538000,-626.0312,-0.3958,0,4,,-16.42
5.540000,-626.0312,-0.3937,0,4,,-16.42
5.542000,-626.0312,-0.3915,0,4,,-16.42
5.544000,-626.0312,-0.3893,0,4,,-16.42
5.546000,-626.0312,-0.3872,0,4,,-16.42
5.548000,-626.0312,-0.3850,0,4,,-16.42
5.550000,-626.0312,-0.3828,0,4,,-16.42
5.552000,-626.0312,-0.3806,0,4,,-16.42
5.554000,-626.0312,-0.3784,0,4,,-16.42
5.556000,-626.0312,-0.3762,0,4,,-16.42
5.558000,-626.0312,-0.3739,0,4,,-16.42
5.560000,-626.0312,-0.3717,0,4,,-16.42
5.562000,-626.0312,-0.3695,0,4,,-16.42
5.564000,-626.0312,-0.3673,0,4,,-16.42
5.566000,-626.0312,-0.3650,0,4,,-16.42
5.568000,-626.0312,-0.3628,0,4,,-16.42
5.570000,-626.0312,-0.3606,0,4,,-16.42
5.572000,-626.0312,-0.3583,0,4,,-16.42
5.574000,-626.0312,-0.3561,0,4,,-16.42
5.576000,-626.0312,-0.3538,0,4,,-16.42
5.578000,-626.0312,-0.3516,0,4,,-16.42
5.580000,-626.0312,-0.3493,0,4,,-16.42
5.582000,-626.0312,-0.3470,0,4,,-16.42
5.584000,-626.0312,-0.3448,0,4,,-16.42
5.586000,-626.0312,-0.3425,0,4,,-16.42
5.588000,-626.0312,-0.3402,0,4,,-16.42
5.590000,-626.0312,-0.3380,0,4,,-16.42
5.592000,-626.0312,-0.3357,0,4,,-16.42
5.594000,-626.0312,-0.3334,0,4,,-16.42
5.596000,-626.0312,-0.3311,0,4,,-16.42
5.598000,-626.0312,-0.3288,0,4,,-16.42
5.600000,-626.0312,-0.3265,0,4,,-16.42
5.602000,-626.0312,-0.3242,0,4,,-16.42
5.604000,-626.0312,-0.3219,0,4,,-16.42
5.606000,-626.0312,-0.3196,0,4,,-16.42
5.608000,-626.0312,-0.3173,0,4,,-16.42
5.610000,-626.0312,-0.3150,0,4,,-16.42
5.612000,-626.0312,-0.3127,0,4,,-16.42
5.614000,-626.0312,-0.3104,0,4,,-16.42
5.616000,-626.0312,-0.3081,0,4,,-16.42
5.618000,-626.0312,-0.3058,0,4,,-16.42
5.620000,-626.0312,-0.3035,0,4,,-16.42
5.622000,-626.0312,-0.3012,0,4,,-16.42
5.624000,-626.0312,-0.2989,0,4,,-16.42
5.626000,-626.0312,-0.2965,0,4,,-16.42
5.628000,-626.0312,-0.2942,0,4,,-16.42
5.630000,-626.0312,-0.2919,0,4,,-16.42
5.632000,-626.0312,-0.2896,0,4,,-16.42
5.634000,-626.0312,-0.2873,0,4,,-16.42
5.636000,-626.0312,-0.2849,0,4,,-16.42
5.638000,-626.0312,-0.2826,0,4,,-16.42
5.640000,-626.0312,-0.2803,0,4,,-16.42
5.642000,-626.0312,-0.2780,0,4,,-16.42
5.644000,-626.0312,-0.2756,0,4,,-16.42
5.646000,-626.0312,-0.2733,0,4,,-16.42
5.648000,-626.0312,-0.2710,0,4,,-16.42
5.650000,-626.0312,-0.2687,0,4,,-16.42
5.652000,-626.0312,-0.2663,0,4,,-16.42
5.654000,-626.0312,-0.2640,0,4,,-16.42
5.656000,-626.0312,-0.2617,0,4,,-16.42
5.658000,-626.0312,-0.2594,0,4,,-16.42
5.660000,-626.0312,-0.2570,0,4,,-16.42
5.662000,-626.0312,-0.2547,0,4,,-16.42
5.664000,-626.0312,-0.2524,0,4,,-16.42
5.666000,-626.0312,-0.2501,0,4,,-16.42
5.668000,-626.0312,-0.2477,0,4,,-16.42
5.670000,-626.0312,-0.2454,0,4,,-16.42
5.672000,-626.0312,-0.2431,0,4,,-16.42
5.674000,-626.0312,-0.2408,0,4,,-16.42
5.676000,-626.0312,-0.2385,0,4,,-16.42
5.678000,-626.0312,-0.2361,0,4,,-16.42
5.680000,-626.0312,-0.2338,0,4,,-16.42
5.682000,-626.0312,-0.2315,0,4,,-16.42
5.684000,-626.0312,-0.2292,0,4,,-16.42
5.686000,-626.0312,-0.2269,0,4,,-16.42
5.688000,-626.0312,-0.2246,0,4,,-16.42
5.690000,-626.0312,-0.2223,0,4,,-16.42
5.692000,-626.0312,-0.2199,0,4,,-16.42
5.694000,-626.0312,-0.2176,0,4,,-16.42
5.696000,-626.0312,-0.2153,0,4,,-16.42
5.698000,-626.0312,-0.2130,0,4,,-16.42
5.700000,-626.0312,-0.2107,0,4,,-16.42
5.702000,-626.0312,-0.2084,0,4,,-16.42
5.704000,-626.0312,-0.2061,0,4,,-16.42
5.706000,-626.0312,-0.2038,0,4,,-16.42
5.708000,-626.0312,-0.2016,0,4,,-16.42
5.710000,-626.0312,-0.1993,0,4,,-16.42
5.712000,-626.0312,-0.1970,0,4,,-16.42
5.714000,-626.0312,-0.1947,0,4,,-16.42
5.716000,-626.0312,-0.1924,0,4,,-16.42
5.718000,-626.0312,-0.1901,0,4,,-16.42
5.720000,-626.0312,-0.1879,0,4,,-16.42
5.722000,-626.0312,-0.1856,0,4,,-16.42
5.724000,-626.0312,-0.1833,0,4,,-16.42
5.726000,-626.0312,-0.1810,0,4,,-16.42
5.728000,-626.0312,-0.1788,0,4,,-16.42
5.730000,-626.0312,-0.1765,0,4,,-16.42
5.732000,-626.0312,-0.1743,0,4,,-16.42
5.734000,-626.0312,-0.1720,0,4,,-16.42
5.736000,-626.0312,-0.1698,0,4,,-16.42
5.738000,-626.0312,-0.1675,0,4,,-16.42
5.740000,-626.0312,-0.1653,0,4,,-16.42
5.742000,-626.0312,-0.1630,0,4,,-16.42
5.744000,-626.0312,-0.1608,0,4,,-16.42
5.746000,-626.0312,-0.1586,0,4,,-16.42
5.748000,-626.0312,-0.1563,0,4,,-16.42
5.750000,-626.0312,-0.1541,0,4,,-16.42
5.752000,-626.0312,-0.1519,0,4,,-16.42
5.754000,-626.0312,-0.1497,0,4,,-16.42
5.756000,-626.0312,-0.1475,0,4,,-16.42
5.758000,-626.0312,-0.1453,0,4,,-16.42
5.760000,-626.0312,-0.1431,0,4,,-16.42
5.762000,-626.0312,-0.1409,0,4,,-16.42
5.764000,-626.0312,-0.1387,0,4,,-16.42
5.766000,-626.0312,-0.1365,0,4,,-16.42
5.768000,-626.0312,-0.1343,0,4,,-16.42
5.770000,-626.0312,-0.1321,0,4,,-16.42
5.772000,-626.0312,-0.1299,0,4,,-16.42
5.774000,-626.0312,-0.1278,0,4,,-16.42
5.776000,-626.0312,-0.1256,0,4,,-16.42
5.778000,-626.0312,-0.1234,0,4,,-16.42
5.780000,-626.0312,-0.1213,0,4,,-16.42
5.782000,-626.0312,-0.1191,0,4,,-16.42
5.784000,-626.0312,-0.1170,0,4,,-16.42
5.786000,-626.0312,-0.1149,0,4,,-16.42
5.788000,-626.0312,-0.1127,0,4,,-16.42
5.790000,-626.0312,-0.1106,0,4,,-16.42
5.792000,-626.0312,-0.1085,0,4,,-16.42
5.794000,-626.0312,-0.1063,0,4,,-16.42
5.796000,-626.0312,-0.1042,0,4,,-16.42
5.798000,-626.0312,-0.1021,0,4,,-16.42
5.800000,-626.0312,-0.1000,0,4,,-16.42
5.802000,-626.0312,-0.0979,0,4,,-16.42
5.804000,-626.0312,-0.0958,0,4,,-16.42
5.806000,-626.0312,-0.0937,0,4,,-16.42
5.808000,-626.0312,-0.0917,0,4,,-16.42
5.810000,-626.0312,-0.0896,0,4,,-16.42
5.812000,-626.0312,-0.0875,0,4,,-16.42
5.814000,-626.0312,-0.0855,0,4,,-16.42
5.816000,-626.0312,-0.0834,0,4,,-16.42
5.818000,-626.0312,-0.0814,0,4,,-16.42
5.820000,-626.0312,-0.0793,0,4,,-16.42
5.822000,-626.0312,-0.0773,0,4,,-16.42
5.824000,-626.0312,-0.0753,0,4,,-16.42
5.826000,-626.0312,-0.0732,0,4,,-16.42
5.828000,-626.0312,-0.0712,0,4,,-16.42
5.830000,-626.0312,-0.0692,0,4,,-16.42
5.832000,-626.0312,-0.0672,0,4,,-16.42
5.834000,-626.0312,-0.0652,0,4,,-16.42
5.836000,-626.0312,-0.0632,0,4,,-16.42
5.838000,-626.0312,-0.0612,0,4,,-16.42
5.840000,-626.0312,-0.0593,0,4,,-16.42
5.842000,-626.0312,-0.0573,0,4,,-16.42
5.844000,-626.0312,-0.0553,0,4,,-16.42
5.846000,-626.0312,-0.0534,0,4,,-16.42
5.848000,-626.0312,-0.0514,0,4,,-16.42
5.850000,-626.0312,-0.0495,0,4,,-16.42
5.852000,-626.0312,-0.0475,0,4,,-16.42
5.854000,-626.0312,-0.0456,0,4,,-16.42
5.856000,-626.0312,-0.0437,0,4,,-16.42
5.858000,-626.0312,-0.0418,0,4,,-16.42
5.860000,-626.0312,-0.0399,0,4,,-16.42
5.862000,-626.0312,-0.0380,0,4,,-16.42
5.864000,-626.0312,-0.0361,0,4,,-16.42
5.866000,-626.0312,-0.0342,0,4,,-16.42
5.868000,-626.0312,-0.0323,0,4,,-16.42
5.870000,-626.0312,-0.0304,0,4,,-16.42
5.872000,-626.0312,-0.0286,0,4,,-16.42
5.874000,-626.0312,-0.0267,0,4,,-16.42
5.876000,-626.0312,-0.0249,0,4,,-16.42
5.878000,-626.0312,-0.0230,0,4,,-16.42
5.880000,-626.0312,-0.0212,0,4,,-16.42
5.882000,-626.0312,-0.0194,0,4,,-16.42
5.884000,-626.0312,-0.0175,0,4,,-16.42
5.886000,-626.0312,-0.0157,0,4,,-16.42
5.888000,-626.0312,-0.0139,0,4,,-16.42
5.890000,-626.0312,-0.0121,0,4,,-16.42
5.892000,-626.0312,-0.0104,0,4,,-16.42
5.894000,-626.0312,-0.0086,0,4,,-16.42
5.896000,-626.0312,-0.0068,0,4,,-16.42
5.898000,-626.0312,-0.0050,0,4,,-16.42
5.900000,-626.0312,-0.0033,0,4,,-16.42
5.902000,-626.0312,-0.0015,0,4,,-16.42
5.904000,-626.0312,0.0002,0,4,,-16.42
5.906000,-626.0312,0.0019,0,4,,-16.42
5.908000,-626.0312,0.0036,0,4,,-16.42
5.910000,-626.0312,0.0054,0,4,,-16.42
5.912000,-626.0312,0.0071,0,4,,-16.42
5.914000,-626.0312,0.0088,0,4,,-16.42
5.916000,-626.0312,0.0104,0,4,,-16.42
5.918000,-626.0312,0.0121,0,4,,-16.42
5.920000,-626.0312,0.0138,0,4,,-16.42
5.922000,-626.0312,0.0155,0,4,,-16.42
5.924000,-626.0312,0.0171,0,4,,-16.42
5.926000,-626.0312,0.0188,0,4,,-16.42
5.928000,-626.0312,0.0204,0,4,,-16.42
5.930000,-626.0312,0.0220,0,4,,-16.42
5.932000,-626.0312,0.0237,0,4,,-16.42
5.934000,-626.0312,0.0253,0,4,,-16.42
5.936000,-626.0312,0.0269,0,4,,-16.42
5.938000,-626.0312,0.0285,0,4,,-16.42
5.940000,-626.0312,0.0301,0,4,,-16.42
5.942000,-626.0312,0.0316,0,4,,-16.42
5.944000,-626.0312,0.0332,0,4,,-16.42
5.946000,-626.0312,0.0348,0,4,,-16.42
5.948000,-626.0312,0.0363,0,4,,-16.42
5.950000,-626.0312,0.0379,0,4,,-16.42
5.952000,-626.0312,0.0394,0,4,,-16.42
5.954000,-626.0312,0.0409,0,4,,-16.42
5.956000,-626.0312,0.0424,0,4,,-16.42
5.958000,-626.0312,0.0439,0,4,,-16.42
5.960000,-626.0312,0.0454,0,4,,-16.42
5.962000,-626.0312,0.0469,0,4,,-16.42
5.964000,-626.0312,0.0484,0,4,,-16.42
5.966000,-626.0312,0.0499,0,4,,-16.42
5.968000,-626.0312,0.0513,0,4,,-16.42
5.970000,-626.0312,0.0528,0,4,,-16.42
5.972000,-626.0312,0.0542,0,4,,-16.42
5.974000,-626.0312,0.0557,0,4,,-16.42
5.976000,-626.0312,0.0571,0,4,,-16.42
5.978000,-626.0312,0.0585,0,4,,-16.42
5.980000,-626.0312,0.0599,0,4,,-16.42
5.982000,-626.0312,0.0613,0,4,,-16.42
5.984000,-626.0312,0.0627,0,4,,-16.42
5.986000,-626.0312,0.0641,0,4,,-16.42
5.988000,-626.0312,0.0655,0,4,,-16.42
5.990000,-626.0312,0.0668,0,4,,-16.42
5.992000,-626.0312,0.0682,0,4,,-16.42
5.994000,-626.0312,0.0695,0,4,,-16.42
5.996000,-626.0312,0.0709,0,4,,-16.42
5.998000,-626.0312,0.0722,0,4,,-16.42
6.000000,-626.0312,0.0735,0,4,,-16.42
6.002000,-626.0312,0.0748,0,4,,-16.42
6.004000,-626.0312,0.0761,0,4,,-16.42
6.006000,-626.0312,0.0774,0,4,,-16.42
6.008000,-626.0312,0.0787,0,4,,-16.42
6.010000,-626.0312,0.0800,0,4,,-16.42
6.012000,-626.0312,0.0812,0,4,,-16.42
6.014000,-626.0312,0.0825,0,4,,-16.42
6.016000,-626.0312,0.0837,0,4,,-16.42
6.018000,-626.0312,0.0850,0,4,,-16.42
6.020000,-626.0312,0.0862,0,4,,-16.42
6.022000,-626.0312,0.0874,0,4,,-16.42
6.024000,-626.0312,0.0886,0,4,,-16.42
6.026000,-626.0312,0.0898,0,4,,-16.42
6.028000,-626.0312,0.0910,0,4,,-16.42
6.030000,-626.0312,0.0922,0,4,,-16.42
6.032000,-626.0312,0.0933,0,4,,-16.42
6.034000,-626.0312,0.0945,0,4,,-16.42
6.036000,-626.0312,0.0956,0,4,,-16.42
6.038000,-626.0312,0.0968,0,4,,-16.42
6.040000,-626.0312,0.0979,0,4,,-16.42
6.042000,-626.0312,0.0990,0,4,,-16.42
6.044000,-626.0312,0.1001,0,4,,-16.42
6.046000,-626.0312,0.1012,0,4,,-16.42
6.048000,-626.0312,0.1023,0,4,,-16.42
6.050000,-626.0312,0.1034,0,4,,-16.42
6.052000,-626.0312,0.1045,0,4,,-16.42
6.054000,-626.0312,0.1055,0,4,,-16.42
6.056000,-626.0312,0.1066,0,4,,-16.42
6.058000,-626.0312,0.1076,0,4,,-16.42
6.060000,-626.0312,0.1087,0,4,,-16.42
6.062000,-626.0312,0.1097,0,4,,-16.42
6.064000,-626.0312,0.1107,0,4,,-16.42
6.066000,-626.0312,0.1117,0,4,,-16.42
6.068000,-626.0312,0.1127,0,4,,-16.42
6.070000,-626.0312,0.1137,0,4,,-16.42
6.072000,-626.0312,0.1147,0,4,,-16.42
6.074000,-626.0312,0.1157,0,4,,-16.42
6.076000,-626.0312,0.1166,0,4,,-16.42
6.078000,-626.0312,0.1176,0,4,,-16.42
6.080000,-626.0312,0.1185,0,4,,-16.42
6.082000,-626.0312,0.1194,0,4,,-16.42
6.084000,-626.0312,0.1204,0,4,,-16.42
6.086000,-626.0312,0.1213,0,4,,-16.42
6.088000,-626.0312,0.1222,0,4,,-16.42
6.090000,-626.0312,0.1231,0,4,,-16.42
6.092000,-626.0312,0.1239,0,4,,-16.42
6.094000,-626.0312,0.1248,0,4,,-16.42
6.096000,-626.0312,0.1257,0,4,,-16.42
6.098000,-626.0312,0.1265,0,4,,-16.42
6.100000,-626.0312,0.1274,0,4,,-16.42
6.102000,-626.0312,0.1282,0,4,,-16.42
6.104000,-626.0312,0.1290,0,4,,-16.42
6.106000,-626.0312,0.1299,0,4,,-16.42
6.108000,-626.0312,0.1307,0,4,,-16.42
6.110000,-626.0312,0.1315,0,4,,-16.42
6.112000,-626.0312,0.1323,0,4,,-16.42
6.114000,-626.0312,0.1330,0,4,,-16.42
6.116000,-626.0312,0.1338,0,4,,-16.42
6.118000,-626.0312,0.1346,0,4,,-16.42
6.120000,-626.0312,0.1353,0,4,,-16.42
6.122000,-626.0312,0.1361,0,4,,-16.42
6.124000,-626.0312,0.1368,0,4,,-16.42
6.126000,-626.0312,0.1375,0,4,,-16.42
6.128000,-626.0312,0.1382,0,4,,-16.42
6.130000,-626.0312,0.1389,0,4,,-16.42
6.132000,-626.0312,0.1396,0,4,,-16.42
6.134000,-626.0312,0.1403,0,4,,-16.42
6.136000,-626.0312,0.1410,0,4,,-16.42
6.138000,-626.0312,0.1417,0,4,,-16.42
6.140000,-626.0312,0.1423,0,4,,-16.42
6.142000,-626.0312,0.1430,0,4,,-16.42
6.144000,-626.0312,0.1436,0,4,,-16.42
6.146000,-626.0312,0.1442,0,4,,-16.42
6.148000,-626.0312,0.1449,0,4,,-16.42
6.150000,-626.0312,0.1455,0,4,,-16.42
6.152000,-626.0312,0.1461,0,4,,-16.42
6.154000,-626.0312,0.1467,0,4,,-16.42
6.156000,-626.0312,0.1472,0,4,,-16.42
6.158000,-626.0312,0.1478,0,4,,-16.42
