timestamp_s,raw_mV,filtered_mV,is_r_peak,loop,hr_bpm,snr_db
0.000000,-0.0084,-0.0643,0,2,72.46,7.38
0.002000,0.0094,-0.0619,0,2,72.46,7.38
0.004000,-0.0050,-0.0599,0,2,72.46,7.38
0.006000,0.0073,-0.0588,0,2,72.46,7.38
0.008000,0.0006,-0.0587,0,2,72.46,7.38
0.010000,-0.0036,-0.0592,0,2,72.46,7.38
0.012000,0.0045,-0.0602,0,2,72.46,7.38
0.014000,0.0048,-0.0611,0,2,72.46,7.38
0.016000,-0.0361,-0.0614,0,2,72.46,7.38
0.018000,-0.0029,-0.0609,0,2,72.46,7.38
0.020000,-0.0017,-0.0596,0,2,72.46,7.38
0.022000,0.0054,-0.0574,0,2,72.46,7.38
0.024000,0.0235,-0.0549,0,2,72.46,7.38
0.026000,-0.0075,-0.0523,0,2,72.46,7.38
0.028000,0.0306,-0.0501,0,2,72.46,7.38
0.030000,-0.0060,-0.0485,0,2,72.46,7.38
0.032000,-0.0009,-0.0477,0,2,72.46,7.38
0.034000,0.0346,-0.0477,0,2,72.46,7.38
0.036000,0.0244,-0.0484,0,2,72.46,7.38
0.038000,-0.0085,-0.0494,0,2,72.46,7.38
0.040000,0.0049,-0.0504,0,2,72.46,7.38
0.042000,0.0375,-0.0511,0,2,72.46,7.38
0.044000,-0.0072,-0.0510,0,2,72.46,7.38
0.046000,0.0137,-0.0498,0,2,72.46,7.38
0.048000,0.0050,-0.0474,0,2,72.46,7.38
0.050000,0.0324,-0.0438,0,2,72.46,7.38
0.052000,0.0210,-0.0390,0,2,72.46,7.38
0.054000,0.0184,-0.0334,0,2,72.46,7.38
0.056000,0.0572,-0.0272,0,2,72.46,7.38
0.058000,0.0508,-0.0206,0,2,72.46,7.38
0.060000,0.0370,-0.0137,0,2,72.46,7.38
0.062000,0.0506,-0.0066,0,2,72.46,7.38
0.064000,0.0653,0.0005,0,2,72.46,7.38
0.066000,0.0731,0.0078,0,2,72.46,7.38
0.068000,0.0731,0.0153,0,2,72.46,7.38
0.070000,0.1380,0.0231,0,2,72.46,7.38
0.072000,0.0955,0.0313,0,2,72.46,7.38
0.074000,0.0667,0.0401,0,2,72.46,7.38
0.076000,0.1126,0.0492,0,2,72.46,7.38
0.078000,0.0964,0.0583,0,2,72.46,7.38
0.080000,0.1472,0.0671,0,2,72.46,7.38
0.082000,0.1845,0.0750,0,2,72.46,7.38
0.084000,0.1493,0.0816,0,2,72.46,7.38
0.086000,0.1646,0.0867,0,2,72.46,7.38
0.088000,0.1380,0.0905,0,2,72.46,7.38
0.090000,0.1488,0.0932,0,2,72.46,7.38
0.092000,0.1611,0.0951,0,2,72.46,7.38
0.094000,0.1934,0.0966,0,2,72.46,7.38
0.096000,0.1162,0.0979,0,2,72.46,7.38
0.098000,0.2096,0.0990,0,2,72.46,7.38
0.100000,0.1792,0.1000,0,2,72.46,7.38
0.102000,0.1650,0.1006,0,2,72.46,7.38
0.104000,0.1621,0.1006,0,2,72.46,7.38
0.106000,0.1386,0.0998,0,2,72.46,7.38
0.108000,0.2028,0.0978,0,2,72.46,7.38
0.110000,0.1487,0.0943,0,2,72.46,7.38
0.112000,0.1711,0.0891,0,2,72.46,7.38
0.114000,0.1695,0.0822,0,2,72.46,7.38
0.116000,0.1461,0.0738,0,2,72.46,7.38
0.118000,0.1237,0.0641,0,2,72.46,7.38
0.120000,0.1270,0.0537,0,2,72.46,7.38
0.122000,0.1118,0.0432,0,2,72.46,7.38
0.124000,0.1022,0.0330,0,2,72.46,7.38
0.126000,0.0947,0.0234,0,2,72.46,7.38
0.128000,0.1028,0.0147,0,2,72.46,7.38
0.130000,0.0841,0.0071,0,2,72.46,7.38
0.132000,0.0549,0.0003,0,2,72.46,7.38
0.134000,0.0704,-0.0057,0,2,72.46,7.38
0.136000,0.0539,-0.0112,0,2,72.46,7.38
0.138000,0.0800,-0.0164,0,2,72.46,7.38
0.140000,0.0385,-0.0216,0,2,72.46,7.38
0.142000,0.0741,-0.0269,0,2,72.46,7.38
0.144000,0.0516,-0.0320,0,2,72.46,7.38
0.146000,0.0106,-0.0369,0,2,72.46,7.38
0.148000,0.0649,-0.0412,0,2,72.46,7.38
0.150000,-0.0138,-0.0449,0,2,72.46,7.38
0.152000,0.0361,-0.0479,0,2,72.46,7.38
0.154000,0.0090,-0.0507,0,2,72.46,7.38
0.156000,0.0505,-0.0535,0,2,72.46,7.38
0.158000,0.0326,-0.0566,0,2,72.46,7.38
0.160000,0.0190,-0.0602,0,2,72.46,7.38
0.162000,-0.0046,-0.0639,0,2,72.46,7.38
0.164000,0.0021,-0.0667,0,2,72.46,7.38
0.166000,0.0219,-0.0671,0,2,72.46,7.38
0.168000,0.0117,-0.0627,0,2,72.46,7.38
0.170000,0.0226,-0.0507,0,2,72.46,7.38
0.172000,0.0585,-0.0277,0,2,72.46,7.38
0.174000,0.1197,0.0102,0,2,72.46,7.38
0.176000,0.1531,0.0665,0,2,72.46,7.38
0.178000,0.2425,0.1445,0,2,72.46,7.38
0.180000,0.3022,0.2459,0,2,72.46,7.38
0.182000,0.4173,0.3709,0,2,72.46,7.38
0.184000,0.5835,0.5172,0,2,72.46,7.38
0.186000,0.7753,0.6800,0,2,72.46,7.38
0.188000,0.9291,0.8520,0,2,72.46,7.38
0.190000,1.0990,1.0237,0,2,72.46,7.38
0.192000,1.2244,1.1841,0,2,72.46,7.38
0.194000,1.4168,1.3218,0,2,72.46,7.38
0.196000,1.5316,1.4263,0,2,72.46,7.38
0.198000,1.5666,1.4887,1,2,72.46,7.38
0.200000,1.6168,1.5030,1,2,72.46,7.38
0.202000,1.5778,1.4671,1,2,72.46,7.38
0.204000,1.4467,1.3827,0,2,72.46,7.38
0.206000,1.3564,1.2556,0,2,72.46,7.38
0.208000,1.1865,1.0948,0,2,72.46,7.38
0.210000,0.9632,0.9118,0,2,72.46,7.38
0.212000,0.7973,0.7190,0,2,72.46,7.38
0.214000,0.6090,0.5291,0,2,72.46,7.38
0.216000,0.4597,0.3534,0,2,72.46,7.38
0.218000,0.2879,0.2007,0,2,72.46,7.38
0.220000,0.1028,0.0771,0,2,72.46,7.38
0.222000,0.0573,-0.0147,0,2,72.46,7.38
0.224000,0.0214,-0.0752,0,2,72.46,7.38
0.226000,-0.0453,-0.1079,0,2,72.46,7.38
0.228000,-0.0151,-0.1182,0,2,72.46,7.38
0.230000,-0.0049,-0.1125,0,2,72.46,7.38
0.232000,0.0181,-0.0972,0,2,72.46,7.38
0.234000,0.0241,-0.0780,0,2,72.46,7.38
0.236000,0.0257,-0.0594,0,2,72.46,7.38
0.238000,0.0238,-0.0439,0,2,72.46,7.38
0.240000,0.0419,-0.0329,0,2,72.46,7.38
0.242000,0.0793,-0.0263,0,2,72.46,7.38
0.244000,0.0560,-0.0231,0,2,72.46,7.38
0.246000,0.0466,-0.0219,0,2,72.46,7.38
0.248000,0.0557,-0.0211,0,2,72.46,7.38
0.250000,0.0853,-0.0195,0,2,72.46,7.38
0.252000,0.0615,-0.0162,0,2,72.46,7.38
0.254000,0.0676,-0.0108,0,2,72.46,7.38
0.256000,0.0851,-0.0034,0,2,72.46,7.38
0.258000,0.1248,0.0056,0,2,72.46,7.38
0.260000,0.1028,0.0157,0,2,72.46,7.38
0.262000,0.1191,0.0262,0,2,72.46,7.38
0.264000,0.0895,0.0367,0,2,72.46,7.38
0.266000,0.1530,0.0468,0,2,72.46,7.38
0.268000,0.1560,0.0564,0,2,72.46,7.38
0.270000,0.1481,0.0656,0,2,72.46,7.38
0.272000,0.1836,0.0748,0,2,72.46,7.38
0.274000,0.1603,0.0840,0,2,72.46,7.38
0.276000,0.1739,0.0938,0,2,72.46,7.38
0.278000,0.1939,0.1042,0,2,72.46,7.38
0.280000,0.2180,0.1153,0,2,72.46,7.38
0.282000,0.1950,0.1268,0,2,72.46,7.38
0.284000,0.2349,0.1386,0,2,72.46,7.38
0.286000,0.2713,0.1503,0,2,72.46,7.38
0.288000,0.2339,0.1615,0,2,72.46,7.38
0.290000,0.2732,0.1723,0,2,72.46,7.38
0.292000,0.2460,0.1824,0,2,72.46,7.38
0.294000,0.3088,0.1918,0,2,72.46,7.38
0.296000,0.2714,0.2006,0,2,72.46,7.38
0.298000,0.3295,0.2088,0,2,72.46,7.38
0.300000,0.3265,0.2166,0,2,72.46,7.38
0.302000,0.2966,0.2239,0,2,72.46,7.38
0.304000,0.2949,0.2308,0,2,72.46,7.38
0.306000,0.3112,0.2371,0,2,72.46,7.38
0.308000,0.3768,0.2428,0,2,72.46,7.38
0.310000,0.3399,0.2474,0,2,72.46,7.38
0.312000,0.3475,0.2509,0,2,72.46,7.38
0.314000,0.3384,0.2532,0,2,72.46,7.38
0.316000,0.3641,0.2542,0,2,72.46,7.38
0.318000,0.3340,0.2541,0,2,72.46,7.38
0.320000,0.3475,0.2531,0,2,72.46,7.38
0.322000,0.3461,0.2514,0,2,72.46,7.38
0.324000,0.3594,0.2493,0,2,72.46,7.38
0.326000,0.3345,0.2467,0,2,72.46,7.38
0.328000,0.3141,0.2438,0,2,72.46,7.38
0.330000,0.3327,0.2404,0,2,72.46,7.38
0.332000,0.3310,0.2363,0,2,72.46,7.38
0.334000,0.3581,0.2314,0,2,72.46,7.38
0.336000,0.3300,0.2254,0,2,72.46,7.38
0.338000,0.2878,0.2183,0,2,72.46,7.38
0.340000,0.3198,0.2103,0,2,72.46,7.38
0.342000,0.3078,0.2016,0,2,72.46,7.38
0.344000,0.2661,0.1925,0,2,72.46,7.38
0.346000,0.2884,0.1832,0,2,72.46,7.38
0.348000,0.2583,0.1740,0,2,72.46,7.38
0.350000,0.2612,0.1648,0,2,72.46,7.38
0.352000,0.2522,0.1557,0,2,72.46,7.38
0.354000,0.2581,0.1465,0,2,72.46,7.38
0.356000,0.2274,0.1369,0,2,72.46,7.38
0.358000,0.2175,0.1268,0,2,72.46,7.38
0.360000,0.2462,0.1159,0,2,72.46,7.38
0.362000,0.1881,0.1044,0,2,72.46,7.38
0.364000,0.1929,0.0923,0,2,72.46,7.38
0.366000,0.1485,0.0799,0,2,72.46,7.38
0.368000,0.1608,0.0673,0,2,72.46,7.38
0.370000,0.1695,0.0549,0,2,72.46,7.38
0.372000,0.1550,0.0428,0,2,72.46,7.38
0.374000,0.1271,0.0313,0,2,72.46,7.38
0.376000,0.1398,0.0207,0,2,72.46,7.38
0.378000,0.0839,0.0112,0,2,72.46,7.38
0.380000,0.0998,0.0030,0,2,72.46,7.38
0.382000,0.1019,-0.0040,0,2,72.46,7.38
0.384000,0.0778,-0.0101,0,2,72.46,7.38
0.386000,0.0797,-0.0156,0,2,72.46,7.38
0.388000,0.1075,-0.0209,0,2,72.46,7.38
0.390000,0.0363,-0.0266,0,2,72.46,7.38
0.392000,0.0648,-0.0329,0,2,72.46,7.38
0.394000,0.0970,-0.0400,0,2,72.46,7.38
0.396000,0.0443,-0.0477,0,2,72.46,7.38
0.398000,0.0687,-0.0556,0,2,72.46,7.38
0.400000,0.0397,-0.0631,0,2,72.46,7.38
0.402000,0.0147,-0.0696,0,2,72.46,7.38
0.404000,-0.0329,-0.0746,0,2,72.46,7.38
0.406000,0.0683,-0.0779,0,2,72.46,7.38
0.408000,-0.0120,-0.0795,0,2,72.46,7.38
0.410000,0.0688,-0.0799,0,2,72.46,7.38
0.412000,0.0142,-0.0797,0,2,72.46,7.38
0.414000,0.0297,-0.0795,0,2,72.46,7.38
0.416000,0.0014,-0.0798,0,2,72.46,7.38
0.418000,0.0026,-0.0811,0,2,72.46,7.38
0.420000,0.0431,-0.0836,0,2,72.46,7.38
0.422000,0.0275,-0.0873,0,2,72.46,7.38
0.424000,0.0022,-0.0919,0,2,72.46,7.38
0.426000,0.0230,-0.0968,0,2,72.46,7.38
0.428000,-0.0003,-0.1014,0,2,72.46,7.38
0.430000,-0.0232,-0.1050,0,2,72.46,7.38
0.432000,-0.0283,-0.1073,0,2,72.46,7.38
0.434000,0.0077,-0.1080,0,2,72.46,7.38
0.436000,-0.0051,-0.1076,0,2,72.46,7.38
0.438000,-0.0098,-0.1064,0,2,72.46,7.38
0.440000,0.0405,-0.1051,0,2,72.46,7.38
0.442000,-0.0308,-0.1043,0,2,72.46,7.38
0.444000,0.0118,-0.1043,0,2,72.46,7.38
0.446000,0.0050,-0.1053,0,2,72.46,7.38
0.448000,-0.0116,-0.1070,0,2,72.46,7.38
0.450000,-0.0079,-0.1091,0,2,72.46,7.38
0.452000,-0.0262,-0.1110,0,2,72.46,7.38
0.454000,-0.0034,-0.1123,0,2,72.46,7.38
0.456000,0.0256,-0.1126,0,2,72.46,7.38
0.458000,0.0025,-0.1116,0,2,72.46,7.38
0.460000,-0.0305,-0.1095,0,2,72.46,7.38
0.462000,-0.0264,-0.1064,0,2,72.46,7.38
0.464000,-0.0082,-0.1029,0,2,72.46,7.38
0.466000,0.0007,-0.0997,0,2,72.46,7.38
0.468000,0.0372,-0.0974,0,2,72.46,7.38
0.470000,0.0417,-0.0965,0,2,72.46,7.38
0.472000,0.0009,-0.0971,0,2,72.46,7.38
0.474000,-0.0008,-0.0991,0,2,72.46,7.38
0.476000,-0.0073,-0.1019,0,2,72.46,7.38
0.478000,-0.0063,-0.1048,0,2,72.46,7.38
0.480000,0.0091,-0.1073,0,2,72.46,7.38
0.482000,-0.0514,-0.1090,0,2,72.46,7.38
0.484000,0.0157,-0.1097,0,2,72.46,7.38
0.486000,0.0402,-0.1094,0,2,72.46,7.38
0.488000,0.0106,-0.1082,0,2,72.46,7.38
0.490000,-0.0309,-0.1062,0,2,72.46,7.38
0.492000,-0.0295,-0.1037,0,2,72.46,7.38
0.494000,0.0092,-0.1010,0,2,72.46,7.38
0.496000,0.0380,-0.0986,0,2,72.46,7.38
0.498000,0.0164,-0.0967,0,2,72.46,7.38
0.500000,0.0049,-0.0958,0,2,72.46,7.38
0.502000,-0.0006,-0.0961,0,2,72.46,7.38
0.504000,0.0161,-0.0977,0,2,72.46,7.38
0.506000,-0.0026,-0.1004,0,2,72.46,7.38
0.508000,-0.0077,-0.1040,0,2,72.46,7.38
0.510000,0.0256,-0.1081,0,2,72.46,7.38
0.512000,0.0034,-0.1123,0,2,72.46,7.38
0.514000,-0.0262,-0.1159,0,2,72.46,7.38
0.516000,-0.0122,-0.1186,0,2,72.46,7.38
0.518000,-0.0092,-0.1199,0,2,72.46,7.38
0.520000,-0.0104,-0.1198,0,2,72.46,7.38
0.522000,-0.0269,-0.1184,0,2,72.46,7.38
0.524000,-0.0131,-0.1160,0,2,72.46,7.38
0.526000,0.0216,-0.1131,0,2,72.46,7.38
0.528000,-0.0172,-0.1103,0,2,72.46,7.38
0.530000,-0.0115,-0.1080,0,2,72.46,7.38
0.532000,0.0184,-0.1066,0,2,72.46,7.38
0.534000,0.0308,-0.1061,0,2,72.46,7.38
0.536000,-0.0054,-0.1066,0,2,72.46,7.38
0.538000,-0.0537,-0.1076,0,2,72.46,7.38
0.540000,0.0055,-0.1090,0,2,72.46,7.38
0.542000,0.0478,-0.1104,0,2,72.46,7.38
0.544000,-0.0093,-0.1116,0,2,72.46,7.38
0.546000,-0.0030,-0.1122,0,2,72.46,7.38
0.548000,-0.0110,-0.1123,0,2,72.46,7.38
0.550000,-0.0336,-0.1119,0,2,72.46,7.38
0.552000,-0.0147,-0.1115,0,2,72.46,7.38
0.554000,0.0029,-0.1115,0,2,72.46,7.38
0.556000,0.0176,-0.1123,0,2,72.46,7.38
0.558000,0.0116,-0.1145,0,2,72.46,7.38
0.560000,0.0111,-0.1178,0,2,72.46,7.38
0.562000,-0.0314,-0.1218,0,2,72.46,7.38
0.564000,0.0129,-0.1259,0,2,72.46,7.38
0.566000,-0.0486,-0.1291,0,2,72.46,7.38
0.568000,-0.0609,-0.1307,0,2,72.46,7.38
0.570000,-0.0314,-0.1303,0,2,72.46,7.38
0.572000,0.0325,-0.1279,0,2,72.46,7.38
0.574000,-0.0338,-0.1238,0,2,72.46,7.38
0.576000,-0.0073,-0.1189,0,2,72.46,7.38
0.578000,0.0193,-0.1139,0,2,72.46,7.38
0.580000,-0.0238,-0.1097,0,2,72.46,7.38
0.582000,-0.0035,-0.1068,0,2,72.46,7.38
0.584000,0.0314,-0.1055,0,2,72.46,7.38
0.586000,0.0146,-0.1060,0,2,72.46,7.38
0.588000,-0.0315,-0.1079,0,2,72.46,7.38
0.590000,0.0061,-0.1107,0,2,72.46,7.38
0.592000,0.0047,-0.1137,0,2,72.46,7.38
0.594000,0.0160,-0.1161,0,2,72.46,7.38
0.596000,-0.0358,-0.1175,0,2,72.46,7.38
0.598000,0.0062,-0.1175,0,2,72.46,7.38
0.600000,-0.0269,-0.1162,0,2,72.46,7.38
0.602000,-0.0320,-0.1138,0,2,72.46,7.38
0.604000,0.0417,-0.1110,0,2,72.46,7.38
0.606000,0.0033,-0.1084,0,2,72.46,7.38
0.608000,0.0117,-0.1066,0,2,72.46,7.38
0.610000,0.0155,-0.1058,0,2,72.46,7.38
0.612000,-0.0085,-0.1062,0,2,72.46,7.38
0.614000,-0.0070,-0.1075,0,2,72.46,7.38
0.616000,-0.0011,-0.1096,0,2,72.46,7.38
0.618000,0.0112,-0.1119,0,2,72.46,7.38
0.620000,-0.0108,-0.1141,0,2,72.46,7.38
0.622000,-0.0014,-0.1160,0,2,72.46,7.38
0.624000,0.0071,-0.1174,0,2,72.46,7.38
0.626000,-0.0133,-0.1183,0,2,72.46,7.38
0.628000,-0.0205,-0.1186,0,2,72.46,7.38
0.630000,-0.0355,-0.1186,0,2,72.46,7.38
0.632000,0.0121,-0.1184,0,2,72.46,7.38
0.634000,0.0269,-0.1183,0,2,72.46,7.38
0.636000,-0.0023,-0.1182,0,2,72.46,7.38
0.638000,0.0055,-0.1182,0,2,72.46,7.38
0.640000,-0.0401,-0.1181,0,2,72.46,7.38
0.642000,-0.0316,-0.1178,0,2,72.46,7.38
0.644000,0.0040,-0.1173,0,2,72.46,7.38
0.646000,-0.0125,-0.1167,0,2,72.46,7.38
0.648000,0.0214,-0.1161,0,2,72.46,7.38
0.650000,0.0268,-0.1156,0,2,72.46,7.38
0.652000,-0.0140,-0.1152,0,2,72.46,7.38
0.654000,-0.0331,-0.1148,0,2,72.46,7.38
0.656000,0.0042,-0.1141,0,2,72.46,7.38
0.658000,0.0003,-0.1133,0,2,72.46,7.38
0.660000,-0.0064,-0.1122,0,2,72.46,7.38
0.662000,-0.0226,-0.1111,0,2,72.46,7.38
0.664000,0.0642,-0.1101,0,2,72.46,7.38
0.666000,-0.0192,-0.1096,0,2,72.46,7.38
0.668000,-0.0182,-0.1096,0,2,72.46,7.38
0.670000,0.0087,-0.1100,0,2,72.46,7.38
0.672000,0.0310,-0.1109,0,2,72.46,7.38
0.674000,-0.0117,-0.1120,0,2,72.46,7.38
0.676000,-0.0398,-0.1130,0,2,72.46,7.38
0.678000,0.0159,-0.1140,0,2,72.46,7.38
0.680000,0.0372,-0.1147,0,2,72.46,7.38
0.682000,-0.0241,-0.1151,0,2,72.46,7.38
0.684000,-0.0321,-0.1153,0,2,72.46,7.38
0.686000,0.0400,-0.1153,0,2,72.46,7.38
0.688000,-0.0169,-0.1154,0,2,72.46,7.38
0.690000,-0.0274,-0.1155,0,2,72.46,7.38
0.692000,0.0065,-0.1160,0,2,72.46,7.38
0.694000,-0.0103,-0.1168,0,2,72.46,7.38
0.696000,0.0212,-0.1180,0,2,72.46,7.38
0.698000,0.0067,-0.1192,0,2,72.46,7.38
0.700000,-0.0041,-0.1203,0,2,72.46,7.38
0.702000,-0.0278,-0.1209,0,2,72.46,7.38
0.704000,-0.0212,-0.1207,0,2,72.46,7.38
0.706000,-0.0277,-0.1197,0,2,72.46,7.38
0.708000,0.0179,-0.1180,0,2,72.46,7.38
0.710000,-0.0112,-0.1160,0,2,72.46,7.38
0.712000,0.0071,-0.1140,0,2,72.46,7.38
0.714000,0.0213,-0.1123,0,2,72.46,7.38
0.716000,0.0115,-0.1112,0,2,72.46,7.38
0.718000,-0.0126,-0.1107,0,2,72.46,7.38
0.720000,-0.0135,-0.1107,0,2,72.46,7.38
0.722000,-0.0080,-0.1110,0,2,72.46,7.38
0.724000,0.0105,-0.1116,0,2,72.46,7.38
0.726000,0.0158,-0.1125,0,2,72.46,7.38
0.728000,0.0060,-0.1136,0,2,72.46,7.38
0.730000,-0.0276,-0.1147,0,2,72.46,7.38
0.732000,0.0150,-0.1158,0,2,72.46,7.38
0.734000,0.0025,-0.1168,0,2,72.46,7.38
0.736000,-0.0050,-0.1175,0,2,72.46,7.38
0.738000,-0.0292,-0.1180,0,2,72.46,7.38
0.740000,-0.0243,-0.1182,0,2,72.46,7.38
0.742000,0.0353,-0.1182,0,2,72.46,7.38
0.744000,0.0157,-0.1180,0,2,72.46,7.38
0.746000,-0.0066,-0.1176,0,2,72.46,7.38
0.748000,-0.0211,-0.1169,0,2,72.46,7.38
0.750000,-0.0316,-0.1159,0,2,72.46,7.38
0.752000,0.0252,-0.1145,0,2,72.46,7.38
0.754000,-0.0139,-0.1128,0,2,72.46,7.38
0.756000,0.0171,-0.1110,0,2,72.46,7.38
0.758000,-0.0146,-0.1092,0,2,72.46,7.38
0.760000,0.0392,-0.1078,0,2,72.46,7.38
0.762000,0.0010,-0.1069,0,2,72.46,7.38
0.764000,0.0057,-0.1066,0,2,72.46,7.38
0.766000,0.0062,-0.1070,0,2,72.46,7.38
0.768000,-0.0183,-0.1082,0,2,72.46,7.38
0.770000,-0.0025,-0.1101,0,2,72.46,7.38
0.772000,0.0178,-0.1126,0,2,72.46,7.38
0.774000,0.0062,-0.1157,0,2,72.46,7.38
0.776000,0.0038,-0.1190,0,2,72.46,7.38
0.778000,-0.0249,-0.1223,0,2,72.46,7.38
0.780000,0.0011,-0.1251,0,2,72.46,7.38
0.782000,-0.0010,-0.1270,0,2,72.46,7.38
0.784000,-0.0363,-0.1277,0,2,72.46,7.38
0.786000,-0.0200,-0.1271,0,2,72.46,7.38
0.788000,-0.0155,-0.1255,0,2,72.46,7.38
0.790000,-0.0004,-0.1231,0,2,72.46,7.38
0.792000,-0.0437,-0.1204,0,2,72.46,7.38
0.794000,0.0468,-0.1180,0,2,72.46,7.38
0.796000,0.0095,-0.1161,0,2,72.46,7.38
0.798000,-0.0103,-0.1151,0,2,72.46,7.38
0.800000,-0.0204,-0.1146,0,2,72.46,7.38
0.802000,0.0073,-0.1146,0,2,72.46,7.38
0.804000,-0.0024,-0.1148,0,2,72.46,7.38
0.806000,0.0117,-0.1149,0,2,72.46,7.38
0.808000,-0.0280,-0.1148,0,2,72.46,7.38
0.810000,0.0046,-0.1145,0,2,72.46,7.38
0.812000,0.0184,-0.1140,0,2,72.46,7.38
0.814000,-0.0197,-0.1135,0,2,72.46,7.38
0.816000,-0.0159,-0.1132,0,2,72.46,7.38
0.818000,0.0195,-0.1133,0,2,72.46,7.38
0.820000,0.0300,-0.1139,0,2,72.46,7.38
0.822000,-0.0158,-0.1148,0,2,72.46,7.38
0.824000,0.0042,-0.1157,0,2,72.46,7.38
0.826000,-0.0175,-0.1165,0,2,72.46,7.38
0.828000,0.0020,-0.1168,0,2,72.46,7.38
0.830000,-0.0058,-0.1164,0,2,72.46,7.38
0.832000,-0.0131,-0.1152,0,2,72.46,7.38
0.834000,-0.0037,-0.1135,0,2,72.46,7.38
0.836000,0.0033,-0.1116,0,2,72.46,7.38
0.838000,0.0222,-0.1100,0,2,72.46,7.38
0.840000,0.0018,-0.1090,0,2,72.46,7.38
0.842000,0.0091,-0.1089,0,2,72.46,7.38
0.844000,0.0051,-0.1100,0,2,72.46,7.38
0.846000,-0.0229,-0.1121,0,2,72.46,7.38
0.848000,0.0301,-0.1151,0,2,72.46,7.38
0.850000,-0.0165,-0.1184,0,2,72.46,7.38
0.852000,0.0009,-0.1215,0,2,72.46,7.38
0.854000,-0.0173,-0.1238,0,2,72.46,7.38
0.856000,-0.0138,-0.1249,0,2,72.46,7.38
0.858000,-0.0298,-0.1244,0,2,72.46,7.38
0.860000,0.0179,-0.1223,0,2,72.46,7.38
0.862000,-0.0287,-0.1188,0,2,72.46,7.38
0.864000,0.0137,-0.1144,0,2,72.46,7.38
0.866000,0.0022,-0.1098,0,2,72.46,7.38
0.868000,-0.0152,-0.1055,0,2,72.46,7.38
0.870000,0.0673,-0.1017,0,2,72.46,7.38
0.872000,0.0125,-0.0988,0,2,72.46,7.38
0.874000,-0.0025,-0.0966,0,2,72.46,7.38
0.876000,0.0028,-0.0947,0,2,72.46,7.38
0.878000,-0.0026,-0.0928,0,2,72.46,7.38
0.880000,0.0583,-0.0907,0,2,72.46,7.38
0.882000,0.0167,-0.0880,0,2,72.46,7.38
0.884000,0.0533,-0.0845,0,2,72.46,7.38
0.886000,0.0271,-0.0802,0,2,72.46,7.38
0.888000,0.0358,-0.0750,0,2,72.46,7.38
0.890000,0.0566,-0.0689,0,2,72.46,7.38
0.892000,0.0097,-0.0619,0,2,72.46,7.38
0.894000,0.0389,-0.0543,0,2,72.46,7.38
0.896000,0.0878,-0.0466,0,2,72.46,7.38
0.898000,0.1040,-0.0388,0,2,72.46,7.38
0.900000,0.0923,-0.0312,0,2,72.46,7.38
0.902000,0.1097,-0.0236,0,2,72.46,7.38
0.904000,0.0712,-0.0159,0,2,72.46,7.38
0.906000,0.0942,-0.0077,0,2,72.46,7.38
0.908000,0.1015,0.0011,0,2,72.46,7.38
0.910000,0.1263,0.0106,0,2,72.46,7.38
0.912000,0.1234,0.0205,0,2,72.46,7.38
0.914000,0.1638,0.0305,0,2,72.46,7.38
0.916000,0.1635,0.0401,0,2,72.46,7.38
0.918000,0.1694,0.0489,0,2,72.46,7.38
0.920000,0.1450,0.0567,0,2,72.46,7.38
0.922000,0.1764,0.0631,0,2,72.46,7.38
0.924000,0.1911,0.0681,0,2,72.46,7.38
0.926000,0.2007,0.0718,0,2,72.46,7.38
0.928000,0.1802,0.0742,0,2,72.46,7.38
0.930000,0.2166,0.0756,0,2,72.46,7.38
0.932000,0.1479,0.0759,0,2,72.46,7.38
0.934000,0.1711,0.0753,0,2,72.46,7.38
0.936000,0.1854,0.0735,0,2,72.46,7.38
0.938000,0.1859,0.0703,0,2,72.46,7.38
0.940000,0.1948,0.0653,0,2,72.46,7.38
0.942000,0.1879,0.0584,0,2,72.46,7.38
0.944000,0.1917,0.0496,0,2,72.46,7.38
0.946000,0.1244,0.0394,0,2,72.46,7.38
0.948000,0.1233,0.0284,0,2,72.46,7.38
0.950000,0.1424,0.0173,0,2,72.46,7.38
0.952000,0.1132,0.0068,0,2,72.46,7.38
0.954000,0.1149,-0.0024,0,2,72.46,7.38
0.956000,0.1108,-0.0100,0,2,72.46,7.38
0.958000,0.0786,-0.0161,0,2,72.46,7.38
0.960000,0.0859,-0.0210,0,2,72.46,7.38
0.962000,0.0778,-0.0253,0,2,72.46,7.38
0.964000,0.0993,-0.0297,0,2,72.46,7.38
0.966000,0.0773,-0.0350,0,2,72.46,7.38
0.968000,0.0950,-0.0414,0,2,72.46,7.38
0.970000,0.1013,-0.0491,0,2,72.46,7.38
0.972000,0.0188,-0.0576,0,2,72.46,7.38
0.974000,0.0264,-0.0661,0,2,72.46,7.38
0.976000,0.0321,-0.0741,0,2,72.46,7.38
0.978000,0.0220,-0.0808,0,2,72.46,7.38
0.980000,0.0376,-0.0860,0,2,72.46,7.38
0.982000,0.0321,-0.0896,0,2,72.46,7.38
0.984000,0.0569,-0.0920,0,2,72.46,7.38
0.986000,0.0009,-0.0936,0,2,72.46,7.38
0.988000,0.0025,-0.0949,0,2,72.46,7.38
0.990000,0.0100,-0.0966,0,2,72.46,7.38
0.992000,-0.0252,-0.0991,0,2,72.46,7.38
0.994000,0.0228,-0.1024,0,2,72.46,7.38
0.996000,0.0369,-0.1058,0,2,72.46,7.38
0.998000,0.0096,-0.1079,0,2,72.46,7.38
1.000000,0.0156,-0.1063,0,2,72.46,7.38
1.002000,0.0126,-0.0975,0,2,72.46,7.38
1.004000,0.0570,-0.0774,0,2,72.46,7.38
1.006000,0.0639,-0.0414,0,2,72.46,7.38
1.008000,0.1238,0.0146,0,2,72.46,7.38
1.010000,0.2073,0.0938,0,2,72.46,7.38
1.012000,0.2784,0.1979,0,2,72.46,7.38
1.014000,0.4439,0.3263,0,2,72.46,7.38
1.016000,0.5868,0.4760,0,2,72.46,7.38
1.018000,0.7352,0.6417,0,2,72.46,7.38
1.020000,0.9636,0.8154,0,2,72.46,7.38
1.022000,1.0454,0.9877,0,2,72.46,7.38
1.024000,1.2783,1.1476,0,2,72.46,7.38
1.026000,1.4144,1.2844,0,2,72.46,7.38
1.028000,1.4991,1.3880,0,2,72.46,7.38
1.030000,1.5591,1.4501,1,2,72.46,7.38
1.032000,1.5842,1.4652,1,2,72.46,7.38
1.034000,1.5251,1.4310,1,2,72.46,7.38
1.036000,1.5037,1.3492,0,2,72.46,7.38
1.038000,1.3586,1.2246,0,2,72.46,7.38
1.040000,1.1404,1.0658,0,2,72.46,7.38
1.042000,1.0239,0.8835,0,2,72.46,7.38
1.044000,0.8208,0.6901,0,2,72.46,7.38
1.046000,0.5996,0.4981,0,2,72.46,7.38
1.048000,0.4142,0.3193,0,2,72.46,7.38
1.050000,0.2487,0.1631,0,2,72.46,7.38
1.052000,0.1263,0.0360,0,2,72.46,7.38
1.054000,0.0139,-0.0588,0,2,72.46,7.38
1.056000,0.0121,-0.1216,0,2,72.46,7.38
1.058000,-0.0614,-0.1557,0,2,72.46,7.38
1.060000,-0.0125,-0.1663,0,2,72.46,7.38
1.062000,-0.0221,-0.1599,0,2,72.46,7.38
1.064000,-0.0115,-0.1428,0,2,72.46,7.38
1.066000,-0.0064,-0.1209,0,2,72.46,7.38
1.068000,-0.0101,-0.0987,0,2,72.46,7.38
1.070000,0.0418,-0.0790,0,2,72.46,7.38
1.072000,0.0321,-0.0636,0,2,72.46,7.38
1.074000,0.0784,-0.0528,0,2,72.46,7.38
1.076000,0.0455,-0.0459,0,2,72.46,7.38
1.078000,0.0537,-0.0420,0,2,72.46,7.38
1.080000,0.0580,-0.0396,0,2,72.46,7.38
1.082000,0.1175,-0.0376,0,2,72.46,7.38
1.084000,0.0746,-0.0348,0,2,72.46,7.38
1.086000,0.0639,-0.0305,0,2,72.46,7.38
1.088000,0.0860,-0.0243,0,2,72.46,7.38
1.090000,0.0983,-0.0161,0,2,72.46,7.38
1.092000,0.1013,-0.0062,0,2,72.46,7.38
1.094000,0.1161,0.0048,0,2,72.46,7.38
1.096000,0.1164,0.0165,0,2,72.46,7.38
1.098000,0.1486,0.0282,0,2,72.46,7.38
1.100000,0.1726,0.0394,0,2,72.46,7.38
1.102000,0.1474,0.0498,0,2,72.46,7.38
1.104000,0.1917,0.0592,0,2,72.46,7.38
1.106000,0.1748,0.0679,0,2,72.46,7.38
1.108000,0.1430,0.0759,0,2,72.46,7.38
1.110000,0.2054,0.0837,0,2,72.46,7.38
1.112000,0.2122,0.0914,0,2,72.46,7.38
1.114000,0.2198,0.0993,0,2,72.46,7.38
1.116000,0.2133,0.1078,0,2,72.46,7.38
1.118000,0.2387,0.1169,0,2,72.46,7.38
1.120000,0.2312,0.1270,0,2,72.46,7.38
1.122000,0.2503,0.1381,0,2,72.46,7.38
1.124000,0.2626,0.1501,0,2,72.46,7.38
1.126000,0.2605,0.1627,0,2,72.46,7.38
1.128000,0.2599,0.1756,0,2,72.46,7.38
1.130000,0.3151,0.1882,0,2,72.46,7.38
1.132000,0.3387,0.2000,0,2,72.46,7.38
1.134000,0.3159,0.2105,0,2,72.46,7.38
1.136000,0.3462,0.2196,0,2,72.46,7.38
1.138000,0.3272,0.2274,0,2,72.46,7.38
1.140000,0.3274,0.2338,0,2,72.46,7.38
1.142000,0.3360,0.2391,0,2,72.46,7.38
1.144000,0.3775,0.2433,0,2,72.46,7.38
1.146000,0.3323,0.2465,0,2,72.46,7.38
1.148000,0.3852,0.2484,0,2,72.46,7.38
1.150000,0.3588,0.2490,0,2,72.46,7.38
1.152000,0.3654,0.2481,0,2,72.46,7.38
1.154000,0.3135,0.2459,0,2,72.46,7.38
1.156000,0.3725,0.2425,0,2,72.46,7.38
1.158000,0.3513,0.2379,0,2,72.46,7.38
1.160000,0.3739,0.2327,0,2,72.46,7.38
1.162000,0.3479,0.2272,0,2,72.46,7.38
1.164000,0.3107,0.2218,0,2,72.46,7.38
1.166000,0.2838,0.2168,0,2,72.46,7.38
1.168000,0.3339,0.2123,0,2,72.46,7.38
1.170000,0.3233,0.2079,0,2,72.46,7.38
1.172000,0.3110,0.2033,0,2,72.46,7.38
1.174000,0.2987,0.1979,0,2,72.46,7.38
1.176000,0.3441,0.1913,0,2,72.46,7.38
1.178000,0.3209,0.1832,0,2,72.46,7.38
1.180000,0.2399,0.1737,0,2,72.46,7.38
1.182000,0.2597,0.1631,0,2,72.46,7.38
1.184000,0.2578,0.1516,0,2,72.46,7.38
1.186000,0.2690,0.1396,0,2,72.46,7.38
1.188000,0.2113,0.1272,0,2,72.46,7.38
1.190000,0.2237,0.1146,0,2,72.46,7.38
1.192000,0.2454,0.1018,0,2,72.46,7.38
1.194000,0.1851,0.0891,0,2,72.46,7.38
1.196000,0.2032,0.0765,0,2,72.46,7.38
1.198000,0.1597,0.0643,0,2,72.46,7.38
1.200000,0.1542,0.0528,0,2,72.46,7.38
1.202000,0.1703,0.0421,0,2,72.46,7.38
1.204000,0.1033,0.0323,0,2,72.46,7.38
1.206000,0.1352,0.0233,0,2,72.46,7.38
1.208000,0.1516,0.0149,0,2,72.46,7.38
1.210000,0.1077,0.0070,0,2,72.46,7.38
1.212000,0.1138,-0.0006,0,2,72.46,7.38
1.214000,0.1279,-0.0078,0,2,72.46,7.38
1.216000,0.0785,-0.0147,0,2,72.46,7.38
1.218000,0.0872,-0.0212,0,2,72.46,7.38
1.220000,0.0300,-0.0274,0,2,72.46,7.38
1.222000,0.0882,-0.0333,0,2,72.46,7.38
1.224000,0.1037,-0.0392,0,2,72.46,7.38
1.226000,0.0668,-0.0453,0,2,72.46,7.38
1.228000,0.0519,-0.0516,0,2,72.46,7.38
1.230000,0.0444,-0.0580,0,2,72.46,7.38
1.232000,0.0661,-0.0643,0,2,72.46,7.38
1.234000,0.0410,-0.0701,0,2,72.46,7.38
1.236000,0.0167,-0.0752,0,2,72.46,7.38
1.238000,0.0243,-0.0793,0,2,72.46,7.38
1.240000,0.0078,-0.0826,0,2,72.46,7.38
1.242000,0.0123,-0.0853,0,2,72.46,7.38
1.244000,0.0317,-0.0880,0,2,72.46,7.38
1.246000,0.0530,-0.0909,0,2,72.46,7.38
1.248000,0.0063,-0.0943,0,2,72.46,7.38
1.250000,0.0246,-0.0980,0,2,72.46,7.38
1.252000,0.0173,-0.1017,0,2,72.46,7.38
1.254000,-0.0147,-0.1048,0,2,72.46,7.38
1.256000,-0.0145,-0.1068,0,2,72.46,7.38
1.258000,-0.0132,-0.1074,0,2,72.46,7.38
1.260000,0.0184,-0.1067,0,2,72.46,7.38
1.262000,-0.0156,-0.1050,0,2,72.46,7.38
1.264000,0.0118,-0.1030,0,2,72.46,7.38
1.266000,0.0144,-0.1014,0,2,72.46,7.38
1.268000,0.0337,-0.1007,0,2,72.46,7.38
1.270000,-0.0019,-0.1013,0,2,72.46,7.38
1.272000,0.0129,-0.1030,0,2,72.46,7.38
1.274000,0.0060,-0.1056,0,2,72.46,7.38
1.276000,-0.0153,-0.1086,0,2,72.46,7.38
1.278000,-0.0317,-0.1115,0,2,72.46,7.38
1.280000,-0.0025,-0.1140,0,2,72.46,7.38
1.282000,0.0189,-0.1158,0,2,72.46,7.38
1.284000,-0.0111,-0.1167,0,2,72.46,7.38
1.286000,0.0113,-0.1167,0,2,72.46,7.38
1.288000,-0.0347,-0.1159,0,2,72.46,7.38
1.290000,-0.0086,-0.1143,0,2,72.46,7.38
1.292000,0.0139,-0.1121,0,2,72.46,7.38
1.294000,-0.0420,-0.1098,0,2,72.46,7.38
1.296000,0.0199,-0.1076,0,2,72.46,7.38
1.298000,0.0185,-0.1060,0,2,72.46,7.38
1.300000,0.0050,-0.1050,0,2,72.46,7.38
1.302000,0.0229,-0.1047,0,2,72.46,7.38
1.304000,-0.0263,-0.1050,0,2,72.46,7.38
1.306000,0.0029,-0.1056,0,2,72.46,7.38
1.308000,0.0089,-0.1064,0,2,72.46,7.38
1.310000,-0.0335,-0.1071,0,2,72.46,7.38
1.312000,0.0087,-0.1079,0,2,72.46,7.38
1.314000,0.0232,-0.1088,0,2,72.46,7.38
1.316000,0.0064,-0.1099,0,2,72.46,7.38
1.318000,-0.0078,-0.1113,0,2,72.46,7.38
1.320000,-0.0313,-0.1129,0,2,72.46,7.38
1.322000,0.0171,-0.1144,0,2,72.46,7.38
1.324000,0.0114,-0.1155,0,2,72.46,7.38
1.326000,-0.0340,-0.1159,0,2,72.46,7.38
1.328000,-0.0052,-0.1154,0,2,72.46,7.38
1.330000,-0.0372,-0.1139,0,2,72.46,7.38
1.332000,0.0075,-0.1115,0,2,72.46,7.38
1.334000,0.0150,-0.1085,0,2,72.46,7.38
1.336000,0.0125,-0.1053,0,2,72.46,7.38
1.338000,0.0112,-0.1023,0,2,72.46,7.38
1.340000,0.0088,-0.0998,0,2,72.46,7.38
1.342000,-0.0108,-0.0980,0,2,72.46,7.38
1.344000,-0.0024,-0.0971,0,2,72.46,7.38
1.346000,0.0125,-0.0972,0,2,72.46,7.38
1.348000,0.0210,-0.0982,0,2,72.46,7.38
1.350000,0.0035,-0.1002,0,2,72.46,7.38
1.352000,0.0220,-0.1028,0,2,72.46,7.38
1.354000,-0.0033,-0.1057,0,2,72.46,7.38
1.356000,-0.0003,-0.1084,0,2,72.46,7.38
1.358000,-0.0010,-0.1104,0,2,72.46,7.38
1.360000,0.0074,-0.1113,0,2,72.46,7.38
1.362000,-0.0508,-0.1109,0,2,72.46,7.38
1.364000,0.0245,-0.1092,0,2,72.46,7.38
1.366000,-0.0148,-0.1064,0,2,72.46,7.38
1.368000,0.0120,-0.1029,0,2,72.46,7.38
1.370000,-0.0038,-0.0995,0,2,72.46,7.38
1.372000,0.0281,-0.0965,0,2,72.46,7.38
1.374000,0.0294,-0.0944,0,2,72.46,7.38
1.376000,0.0353,-0.0933,0,2,72.46,7.38
1.378000,-0.0269,-0.0931,0,2,72.46,7.38
1.380000,0.0062,-0.0934,0,2,72.46,7.38
1.382000,0.0250,-0.0940,0,2,72.46,7.38
1.384000,0.0136,-0.0945,0,2,72.46,7.38
1.386000,0.0067,-0.0947,0,2,72.46,7.38
1.388000,0.0137,-0.0945,0,2,72.46,7.38
1.390000,0.0245,-0.0940,0,2,72.46,7.38
1.392000,-0.0136,-0.0936,0,2,72.46,7.38
1.394000,0.0116,-0.0935,0,2,72.46,7.38
1.396000,0.0415,-0.0943,0,2,72.46,7.38
1.398000,0.0342,-0.0961,0,2,72.46,7.38
1.400000,-0.0535,-0.0991,0,2,72.46,7.38
1.402000,0.0184,-0.1032,0,2,72.46,7.38
1.404000,0.0210,-0.1082,0,2,72.46,7.38
1.406000,-0.0089,-0.1133,0,2,72.46,7.38
1.408000,-0.0042,-0.1179,0,2,72.46,7.38
1.410000,0.0004,-0.1213,0,2,72.46,7.38
1.412000,-0.0420,-0.1228,0,2,72.46,7.38
1.414000,-0.0427,-0.1223,0,2,72.46,7.38
1.416000,0.0001,-0.1198,0,2,72.46,7.38
1.418000,-0.0207,-0.1161,0,2,72.46,7.38
1.420000,0.0052,-0.1118,0,2,72.46,7.38
1.422000,0.0145,-0.1081,0,2,72.46,7.38
1.424000,0.0036,-0.1056,0,2,72.46,7.38
1.426000,-0.0005,-0.1048,0,2,72.46,7.38
1.428000,-0.0032,-0.1056,0,2,72.46,7.38
1.430000,0.0001,-0.1075,0,2,72.46,7.38
1.432000,0.0199,-0.1101,0,2,72.46,7.38
1.434000,-0.0183,-0.1124,0,2,72.46,7.38
1.436000,-0.0287,-0.1137,0,2,72.46,7.38
1.438000,-0.0094,-0.1138,0,2,72.46,7.38
1.440000,-0.0028,-0.1124,0,2,72.46,7.38
1.442000,0.0036,-0.1098,0,2,72.46,7.38
1.444000,-0.0087,-0.1066,0,2,72.46,7.38
1.446000,0.0067,-0.1035,0,2,72.46,7.38
1.448000,-0.0035,-0.1010,0,2,72.46,7.38
1.450000,0.0008,-0.0998,0,2,72.46,7.38
1.452000,0.0468,-0.1001,0,2,72.46,7.38
1.454000,0.0085,-0.1019,0,2,72.46,7.38
1.456000,-0.0018,-0.1048,0,2,72.46,7.38
1.458000,-0.0227,-0.1084,0,2,72.46,7.38
1.460000,-0.0178,-0.1120,0,2,72.46,7.38
1.462000,-0.0104,-0.1153,0,2,72.46,7.38
1.464000,-0.0384,-0.1178,0,2,72.46,7.38
1.466000,0.0324,-0.1193,0,2,72.46,7.38
1.468000,0.0192,-0.1198,0,2,72.46,7.38
1.470000,-0.0378,-0.1192,0,2,72.46,7.38
1.472000,-0.0453,-0.1176,0,2,72.46,7.38
1.474000,-0.0142,-0.1153,0,2,72.46,7.38
1.476000,0.0142,-0.1125,0,2,72.46,7.38
1.478000,-0.0152,-0.1098,0,2,72.46,7.38
1.480000,0.0291,-0.1075,0,2,72.46,7.38
1.482000,0.0206,-0.1058,0,2,72.46,7.38
1.484000,-0.0312,-0.1048,0,2,72.46,7.38
1.486000,0.0101,-0.1043,0,2,72.46,7.38
1.488000,-0.0442,-0.1043,0,2,72.46,7.38
1.490000,-0.0001,-0.1047,0,2,72.46,7.38
1.492000,0.0069,-0.1052,0,2,72.46,7.38
1.494000,0.0639,-0.1058,0,2,72.46,7.38
1.496000,0.0120,-0.1063,0,2,72.46,7.38
1.498000,-0.0223,-0.1062,0,2,72.46,7.38
1.500000,-0.0371,-0.1053,0,2,72.46,7.38
1.502000,0.0035,-0.1034,0,2,72.46,7.38
1.504000,-0.0022,-0.1004,0,2,72.46,7.38
1.506000,0.0342,-0.0967,0,2,72.46,7.38
1.508000,-0.0119,-0.0927,0,2,72.46,7.38
1.510000,0.0227,-0.0893,0,2,72.46,7.38
1.512000,0.0332,-0.0869,0,2,72.46,7.38
1.514000,0.0276,-0.0861,0,2,72.46,7.38
1.516000,0.0182,-0.0870,0,2,72.46,7.38
1.518000,0.0228,-0.0895,0,2,72.46,7.38
1.520000,0.0138,-0.0931,0,2,72.46,7.38
1.522000,-0.0127,-0.0974,0,2,72.46,7.38
1.524000,0.0350,-0.1015,0,2,72.46,7.38
1.526000,-0.0441,-0.1050,0,2,72.46,7.38
1.528000,-0.0003,-0.1076,0,2,72.46,7.38
1.530000,-0.0101,-0.1090,0,2,72.46,7.38
1.532000,0.0236,-0.1095,0,2,72.46,7.38
1.534000,0.0031,-0.1092,0,2,72.46,7.38
1.536000,-0.0326,-0.1084,0,2,72.46,7.38
1.538000,0.0471,-0.1074,0,2,72.46,7.38
1.540000,0.0071,-0.1060,0,2,72.46,7.38
1.542000,-0.0221,-0.1043,0,2,72.46,7.38
1.544000,-0.0082,-0.1022,0,2,72.46,7.38
1.546000,-0.0199,-0.0998,0,2,72.46,7.38
1.548000,0.0173,-0.0972,0,2,72.46,7.38
1.550000,-0.0102,-0.0951,0,2,72.46,7.38
1.552000,0.0493,-0.0937,0,2,72.46,7.38
1.554000,0.0231,-0.0935,0,2,72.46,7.38
1.556000,0.0197,-0.0945,0,2,72.46,7.38
1.558000,0.0009,-0.0967,0,2,72.46,7.38
1.560000,0.0419,-0.0993,0,2,72.46,7.38
1.562000,-0.0314,-0.1019,0,2,72.46,7.38
1.564000,-0.0395,-0.1037,0,2,72.46,7.38
1.566000,-0.0041,-0.1044,0,2,72.46,7.38
1.568000,0.0280,-0.1040,0,2,72.46,7.38
1.570000,0.0146,-0.1026,0,2,72.46,7.38
1.572000,0.0064,-0.1007,0,2,72.46,7.38
1.574000,-0.0144,-0.0988,0,2,72.46,7.38
1.576000,0.0417,-0.0974,0,2,72.46,7.38
1.578000,0.0160,-0.0966,0,2,72.46,7.38
1.580000,-0.0096,-0.0967,0,2,72.46,7.38
1.582000,-0.0004,-0.0977,0,2,72.46,7.38
1.584000,-0.0007,-0.0993,0,2,72.46,7.38
1.586000,-0.0145,-0.1013,0,2,72.46,7.38
1.588000,0.0238,-0.1036,0,2,72.46,7.38
1.590000,0.0254,-0.1057,0,2,72.46,7.38
1.592000,-0.0027,-0.1074,0,2,72.46,7.38
1.594000,0.0027,-0.1084,0,2,72.46,7.38
1.596000,-0.0432,-0.1085,0,2,72.46,7.38
1.598000,0.0035,-0.1078,0,2,72.46,7.38
1.600000,0.0148,-0.1066,0,2,72.46,7.38
1.602000,-0.0356,-0.1052,0,2,72.46,7.38
1.604000,0.0057,-0.1041,0,2,72.46,7.38
1.606000,0.0499,-0.1037,0,2,72.46,7.38
1.608000,0.0090,-0.1041,0,2,72.46,7.38
1.610000,-0.0092,-0.1053,0,2,72.46,7.38
1.612000,-0.0328,-0.1070,0,2,72.46,7.38
1.614000,-0.0215,-0.1088,0,2,72.46,7.38
1.616000,0.0185,-0.1106,0,2,72.46,7.38
1.618000,0.0320,-0.1121,0,2,72.46,7.38
1.620000,-0.0389,-0.1132,0,2,72.46,7.38
1.622000,-0.0232,-0.1138,0,2,72.46,7.38
1.624000,-0.0066,-0.1139,0,2,72.46,7.38
1.626000,-0.0063,-0.1134,0,2,72.46,7.38
1.628000,0.0113,-0.1125,0,2,72.46,7.38
1.630000,-0.0125,-0.1111,0,2,72.46,7.38
1.632000,0.0100,-0.1092,0,2,72.46,7.38
1.634000,-0.0076,-0.1070,0,2,72.46,7.38
1.636000,-0.0306,-0.1047,0,2,72.46,7.38
1.638000,0.0186,-0.1024,0,2,72.46,7.38
1.640000,0.0022,-0.1005,0,2,72.46,7.38
1.642000,0.0321,-0.0994,0,2,72.46,7.38
1.644000,-0.0223,-0.0990,0,2,72.46,7.38
1.646000,0.0074,-0.0996,0,2,72.46,7.38
1.648000,0.0119,-0.1009,0,2,72.46,7.38
1.650000,0.0207,-0.1025,0,2,72.46,7.38
1.652000,0.0114,-0.1042,0,2,72.46,7.38
1.654000,-0.0246,-0.1055,0,2,72.46,7.38
1.656000,-0.0267,-0.1062,0,2,72.46,7.38
1.658000,0.0176,-0.1063,0,2,72.46,7.38
1.660000,0.0066,-0.1058,0,2,72.46,7.38
1.662000,-0.0144,-0.1051,0,2,72.46,7.38
1.664000,0.0144,-0.1043,0,2,72.46,7.38
1.666000,0.0179,-0.1038,0,2,72.46,7.38
1.668000,-0.0149,-0.1034,0,2,72.46,7.38
1.670000,-0.0162,-0.1032,0,2,72.46,7.38
1.672000,0.0304,-0.1031,0,2,72.46,7.38
1.674000,0.0171,-0.1029,0,2,72.46,7.38
1.676000,-0.0246,-0.1024,0,2,72.46,7.38
1.678000,-0.0036,-0.1016,0,2,72.46,7.38
1.680000,0.0153,-0.1004,0,2,72.46,7.38
1.682000,0.0057,-0.0989,0,2,72.46,7.38
1.684000,0.0127,-0.0972,0,2,72.46,7.38
1.686000,0.0084,-0.0955,0,2,72.46,7.38
1.688000,0.0119,-0.0940,0,2,72.46,7.38
1.690000,-0.0330,-0.0927,0,2,72.46,7.38
1.692000,0.0611,-0.0917,0,2,72.46,7.38
1.694000,0.0295,-0.0910,0,2,72.46,7.38
1.696000,0.0215,-0.0904,0,2,72.46,7.38
1.698000,-0.0017,-0.0896,0,2,72.46,7.38
1.700000,0.0117,-0.0883,0,2,72.46,7.38
1.702000,0.0207,-0.0864,0,2,72.46,7.38
1.704000,0.0017,-0.0836,0,2,72.46,7.38
1.706000,0.0096,-0.0803,0,2,72.46,7.38
1.708000,0.0403,-0.0767,0,2,72.46,7.38
1.710000,0.0629,-0.0731,0,2,72.46,7.38
1.712000,0.0319,-0.0698,0,2,72.46,7.38
1.714000,0.0345,-0.0670,0,2,72.46,7.38
1.716000,0.0531,-0.0646,0,2,72.46,7.38
1.718000,0.0157,-0.0620,0,2,72.46,7.38
1.720000,0.0619,-0.0590,0,2,72.46,7.38
1.722000,0.0696,-0.0548,0,2,72.46,7.38
1.724000,0.0405,-0.0491,0,2,72.46,7.38
1.726000,0.0553,-0.0416,0,2,72.46,7.38
1.728000,0.0565,-0.0324,0,2,72.46,7.38
1.730000,0.0748,-0.0219,0,2,72.46,7.38
1.732000,0.1121,-0.0109,0,2,72.46,7.38
1.734000,0.0777,-0.0002,0,2,72.46,7.38
1.736000,0.1653,0.0092,0,2,72.46,7.38
1.738000,0.1468,0.0169,0,2,72.46,7.38
1.740000,0.0978,0.0228,0,2,72.46,7.38
1.742000,0.1254,0.0270,0,2,72.46,7.38
1.744000,0.1581,0.0303,0,2,72.46,7.38
1.746000,0.0856,0.0332,0,2,72.46,7.38
1.748000,0.1474,0.0364,0,2,72.46,7.38
1.750000,0.1864,0.0403,0,2,72.46,7.38
1.752000,0.1347,0.0449,0,2,72.46,7.38
1.754000,0.1456,0.0500,0,2,72.46,7.38
1.756000,0.1680,0.0551,0,2,72.46,7.38
1.758000,0.1593,0.0597,0,2,72.46,7.38
1.760000,0.1602,0.0631,0,2,72.46,7.38
1.762000,0.1605,0.0649,0,2,72.46,7.38
1.764000,0.1993,0.0646,0,2,72.46,7.38
1.766000,0.1939,0.0625,0,2,72.46,7.38
1.768000,0.1649,0.0590,0,2,72.46,7.38
1.770000,0.1189,0.0546,0,2,72.46,7.38
1.772000,0.1512,0.0499,0,2,72.46,7.38
1.774000,0.1514,0.0454,0,2,72.46,7.38
1.776000,0.1591,0.0413,0,2,72.46,7.38
1.778000,0.1235,0.0374,0,2,72.46,7.38
1.780000,0.1693,0.0335,0,2,72.46,7.38
1.782000,0.1281,0.0292,0,2,72.46,7.38
1.784000,0.1177,0.0242,0,2,72.46,7.38
1.786000,0.1192,0.0183,0,2,72.46,7.38
1.788000,0.1374,0.0114,0,2,72.46,7.38
1.790000,0.0926,0.0035,0,2,72.46,7.38
1.792000,0.1087,-0.0052,0,2,72.46,7.38
1.794000,0.1124,-0.0144,0,2,72.46,7.38
1.796000,0.0745,-0.0241,0,2,72.46,7.38
1.798000,0.0388,-0.0338,0,2,72.46,7.38
1.800000,0.0399,-0.0436,0,2,72.46,7.38
1.802000,0.0929,-0.0532,0,2,72.46,7.38
1.804000,0.0316,-0.0625,0,2,72.46,7.38
1.806000,0.0530,-0.0712,0,2,72.46,7.38
1.808000,0.0359,-0.0790,0,2,72.46,7.38
1.810000,0.0086,-0.0855,0,2,72.46,7.38
1.812000,0.0194,-0.0903,0,2,72.46,7.38
1.814000,0.0306,-0.0934,0,2,72.46,7.38
1.816000,-0.0511,-0.0948,0,2,72.46,7.38
1.818000,0.0289,-0.0952,0,2,72.46,7.38
1.820000,0.0000,-0.0954,0,2,72.46,7.38
1.822000,0.0106,-0.0960,0,2,72.46,7.38
1.824000,0.0144,-0.0975,0,2,72.46,7.38
1.826000,-0.0020,-0.0996,0,2,72.46,7.38
1.828000,0.0304,-0.1009,0,2,72.46,7.38
1.830000,-0.0039,-0.0990,0,2,72.46,7.38
1.832000,0.0695,-0.0904,0,2,72.46,7.38
1.834000,0.0010,-0.0705,0,2,72.46,7.38
1.836000,0.0743,-0.0347,0,2,72.46,7.38
1.838000,0.1492,0.0217,0,2,72.46,7.38
1.840000,0.1904,0.1022,0,2,72.46,7.38
1.842000,0.2802,0.2084,0,2,72.46,7.38
1.844000,0.4563,0.3399,0,2,72.46,7.38
1.846000,0.5837,0.4935,0,2,72.46,7.38
1.848000,0.7482,0.6632,0,2,72.46,7.38
1.850000,0.9560,0.8406,0,2,72.46,7.38
1.852000,1.1241,1.0157,0,2,72.46,7.38
1.854000,1.3006,1.1772,0,2,72.46,7.38
1.856000,1.4194,1.3140,0,2,72.46,7.38
1.858000,1.5096,1.4162,0,2,72.46,7.38
1.860000,1.5779,1.4758,1,2,72.46,7.38
1.862000,1.5952,1.4878,1,2,72.46,7.38
1.864000,1.5919,1.4508,1,2,72.46,7.38
1.866000,1.4686,1.3669,0,2,72.46,7.38
1.868000,1.3666,1.2418,0,2,72.46,7.38
1.870000,1.1910,1.0844,0,2,72.46,7.38
1.872000,1.0077,0.9055,0,2,72.46,7.38
1.874000,0.8155,0.7171,0,2,72.46,7.38
1.876000,0.6225,0.5312,0,2,72.46,7.38
1.878000,0.4600,0.3586,0,2,72.46,7.38
1.880000,0.3312,0.2076,0,2,72.46,7.38
1.882000,0.1380,0.0842,0,2,72.46,7.38
1.884000,0.0835,-0.0091,0,2,72.46,7.38
1.886000,0.0248,-0.0728,0,2,72.46,7.38
1.888000,0.0132,-0.1097,0,2,72.46,7.38
1.890000,-0.0120,-0.1248,0,2,72.46,7.38
1.892000,-0.0041,-0.1240,0,2,72.46,7.38
1.894000,0.0051,-0.1132,0,2,72.46,7.38
1.896000,0.0456,-0.0977,0,2,72.46,7.38
1.898000,0.0068,-0.0816,0,2,72.46,7.38
1.900000,0.0539,-0.0676,0,2,72.46,7.38
1.902000,0.0098,-0.0568,0,2,72.46,7.38
1.904000,0.0436,-0.0495,0,2,72.46,7.38
1.906000,0.0705,-0.0450,0,2,72.46,7.38
1.908000,0.0474,-0.0423,0,2,72.46,7.38
1.910000,0.0798,-0.0404,0,2,72.46,7.38
1.912000,0.0688,-0.0381,0,2,72.46,7.38
1.914000,0.0747,-0.0348,0,2,72.46,7.38
1.916000,0.0816,-0.0298,0,2,72.46,7.38
1.918000,0.0813,-0.0230,0,2,72.46,7.38
1.920000,0.0771,-0.0145,0,2,72.46,7.38
1.922000,0.0874,-0.0045,0,2,72.46,7.38
1.924000,0.1034,0.0064,0,2,72.46,7.38
1.926000,0.1736,0.0178,0,2,72.46,7.38
1.928000,0.1149,0.0292,0,2,72.46,7.38
1.930000,0.1561,0.0404,0,2,72.46,7.38
1.932000,0.1326,0.0512,0,2,72.46,7.38
1.934000,0.1803,0.0616,0,2,72.46,7.38
1.936000,0.1915,0.0717,0,2,72.46,7.38
1.938000,0.1775,0.0817,0,2,72.46,7.38
1.940000,0.1691,0.0917,0,2,72.46,7.38
1.942000,0.2261,0.1021,0,2,72.46,7.38
1.944000,0.2319,0.1130,0,2,72.46,7.38
1.946000,0.2207,0.1246,0,2,72.46,7.38
1.948000,0.2625,0.1369,0,2,72.46,7.38
1.950000,0.2164,0.1497,0,2,72.46,7.38
1.952000,0.2746,0.1629,0,2,72.46,7.38
1.954000,0.2853,0.1760,0,2,72.46,7.38
1.956000,0.3145,0.1883,0,2,72.46,7.38
1.958000,0.2878,0.1994,0,2,72.46,7.38
1.960000,0.3241,0.2088,0,2,72.46,7.38
1.962000,0.3089,0.2163,0,2,72.46,7.38
1.964000,0.3371,0.2218,0,2,72.46,7.38
1.966000,0.3356,0.2257,0,2,72.46,7.38
1.968000,0.3435,0.2283,0,2,72.46,7.38
1.970000,0.2915,0.2302,0,2,72.46,7.38
1.972000,0.3753,0.2317,0,2,72.46,7.38
1.974000,0.3351,0.2334,0,2,72.46,7.38
1.976000,0.3327,0.2353,0,2,72.46,7.38
1.978000,0.3560,0.2377,0,2,72.46,7.38
1.980000,0.3314,0.2404,0,2,72.46,7.38
1.982000,0.3529,0.2432,0,2,72.46,7.38
1.984000,0.3527,0.2456,0,2,72.46,7.38
1.986000,0.3184,0.2471,0,2,72.46,7.38
1.988000,0.3862,0.2471,0,2,72.46,7.38
1.990000,0.3382,0.2452,0,2,72.46,7.38
1.992000,0.3445,0.2410,0,2,72.46,7.38
1.994000,0.3773,0.2345,0,2,72.46,7.38
1.996000,0.3376,0.2259,0,2,72.46,7.38
1.998000,0.3145,0.2160,0,2,72.46,7.38
2.000000,0.2768,0.2052,0,2,72.46,7.38
2.002000,0.2883,0.1943,0,2,72.46,7.38
2.004000,0.2871,0.1838,0,2,72.46,7.38
2.006000,0.3177,0.1740,0,2,72.46,7.38
2.008000,0.2488,0.1649,0,2,72.46,7.38
2.010000,0.2536,0.1565,0,2,72.46,7.38
2.012000,0.2867,0.1483,0,2,72.46,7.38
2.014000,0.2382,0.1403,0,2,72.46,7.38
2.016000,0.2409,0.1321,0,2,72.46,7.38
2.018000,0.1839,0.1236,0,2,72.46,7.38
2.020000,0.2294,0.1148,0,2,72.46,7.38
2.022000,0.2490,0.1057,0,2,72.46,7.38
2.024000,0.2212,0.0965,0,2,72.46,7.38
2.026000,0.1703,0.0877,0,2,72.46,7.38
2.028000,0.1697,0.0795,0,2,72.46,7.38
2.030000,0.1636,0.0723,0,2,72.46,7.38
2.032000,0.1784,0.0659,0,2,72.46,7.38
2.034000,0.1723,0.0600,0,2,72.46,7.38
2.036000,0.1491,0.0543,0,2,72.46,7.38
2.038000,0.1960,0.0481,0,2,72.46,7.38
2.040000,0.1221,0.0409,0,2,72.46,7.38
2.042000,0.1248,0.0324,0,2,72.46,7.38
2.044000,0.1304,0.0224,0,2,72.46,7.38
2.046000,0.1188,0.0110,0,2,72.46,7.38
2.048000,0.1058,-0.0017,0,2,72.46,7.38
2.050000,0.0910,-0.0151,0,2,72.46,7.38
2.052000,0.0950,-0.0286,0,2,72.46,7.38
2.054000,0.0539,-0.0417,0,2,72.46,7.38
2.056000,0.0401,-0.0537,0,2,72.46,7.38
2.058000,0.0770,-0.0639,0,2,72.46,7.38
2.060000,-0.0133,-0.0719,0,2,72.46,7.38
2.062000,0.0299,-0.0775,0,2,72.46,7.38
2.064000,0.0234,-0.0809,0,2,72.46,7.38
2.066000,0.0354,-0.0824,0,2,72.46,7.38
2.068000,0.0312,-0.0826,0,2,72.46,7.38
2.070000,0.0065,-0.0822,0,2,72.46,7.38
2.072000,0.0478,-0.0816,0,2,72.46,7.38
2.074000,0.0209,-0.0814,0,2,72.46,7.38
2.076000,0.0240,-0.0820,0,2,72.46,7.38
2.078000,-0.0238,-0.0834,0,2,72.46,7.38
2.080000,0.0507,-0.0856,0,2,72.46,7.38
2.082000,0.0564,-0.0883,0,2,72.46,7.38
2.084000,-0.0088,-0.0912,0,2,72.46,7.38
2.086000,0.0057,-0.0937,0,2,72.46,7.38
2.088000,-0.0365,-0.0956,0,2,72.46,7.38
2.090000,0.0497,-0.0967,0,2,72.46,7.38
2.092000,-0.0091,-0.0970,0,2,72.46,7.38
2.094000,0.0317,-0.0964,0,2,72.46,7.38
2.096000,0.0344,-0.0954,0,2,72.46,7.38
2.098000,-0.0066,-0.0940,0,2,72.46,7.38
2.100000,-0.0191,-0.0924,0,2,72.46,7.38
2.102000,0.0241,-0.0909,0,2,72.46,7.38
2.104000,0.0264,-0.0896,0,2,72.46,7.38
2.106000,0.0052,-0.0888,0,2,72.46,7.38
2.108000,0.0058,-0.0888,0,2,72.46,7.38
2.110000,0.0444,-0.0896,0,2,72.46,7.38
2.112000,0.0173,-0.0913,0,2,72.46,7.38
2.114000,-0.0016,-0.0938,0,2,72.46,7.38
2.116000,0.0378,-0.0966,0,2,72.46,7.38
2.118000,-0.0019,-0.0994,0,2,72.46,7.38
2.120000,-0.0527,-0.1017,0,2,72.46,7.38
2.122000,0.0249,-0.1031,0,2,72.46,7.38
2.124000,0.0067,-0.1036,0,2,72.46,7.38
2.126000,0.0123,-0.1031,0,2,72.46,7.38
2.128000,0.0167,-0.1017,0,2,72.46,7.38
2.130000,-0.0061,-0.0996,0,2,72.46,7.38
2.132000,0.0027,-0.0972,0,2,72.46,7.38
2.134000,0.0032,-0.0948,0,2,72.46,7.38
2.136000,0.0297,-0.0928,0,2,72.46,7.38
2.138000,-0.0023,-0.0914,0,2,72.46,7.38
2.140000,0.0135,-0.0908,0,2,72.46,7.38
2.142000,0.0141,-0.0910,0,2,72.46,7.38
2.144000,0.0224,-0.0920,0,2,72.46,7.38
2.146000,0.0335,-0.0933,0,2,72.46,7.38
2.148000,-0.0084,-0.0946,0,2,72.46,7.38
2.150000,0.0111,-0.0954,0,2,72.46,7.38
2.152000,0.0192,-0.0955,0,2,72.46,7.38
2.154000,-0.0247,-0.0949,0,2,72.46,7.38
2.156000,0.0337,-0.0936,0,2,72.46,7.38
2.158000,-0.0051,-0.0922,0,2,72.46,7.38
2.160000,0.0189,-0.0911,0,2,72.46,7.38
2.162000,0.0309,-0.0909,0,2,72.46,7.38
2.164000,-0.0046,-0.0919,0,2,72.46,7.38
2.166000,0.0176,-0.0944,0,2,72.46,7.38
2.168000,-0.0010,-0.0982,0,2,72.46,7.38
2.170000,0.0458,-0.1027,0,2,72.46,7.38
2.172000,0.0232,-0.1075,0,2,72.46,7.38
2.174000,-0.0348,-0.1116,0,2,72.46,7.38
2.176000,-0.0766,-0.1146,0,2,72.46,7.38
2.178000,-0.0028,-0.1162,0,2,72.46,7.38
2.180000,-0.0132,-0.1166,0,2,72.46,7.38
2.182000,0.0104,-0.1162,0,2,72.46,7.38
2.184000,-0.0201,-0.1156,0,2,72.46,7.38
2.186000,0.0260,-0.1152,0,2,72.46,7.38
2.188000,0.0083,-0.1152,0,2,72.46,7.38
2.190000,-0.0292,-0.1153,0,2,72.46,7.38
2.192000,-0.0151,-0.1152,0,2,72.46,7.38
2.194000,-0.0025,-0.1143,0,2,72.46,7.38
2.196000,-0.0289,-0.1123,0,2,72.46,7.38
2.198000,-0.0166,-0.1092,0,2,72.46,7.38
2.200000,-0.0273,-0.1052,0,2,72.46,7.38
2.202000,0.0332,-0.1010,0,2,72.46,7.38
2.204000,-0.0115,-0.0973,0,2,72.46,7.38
2.206000,0.0507,-0.0947,0,2,72.46,7.38
2.208000,0.0534,-0.0935,0,2,72.46,7.38
2.210000,-0.0137,-0.0936,0,2,72.46,7.38
2.212000,-0.0106,-0.0947,0,2,72.46,7.38
2.214000,-0.0139,-0.0962,0,2,72.46,7.38
2.216000,0.0284,-0.0976,0,2,72.46,7.38
2.218000,-0.0117,-0.0986,0,2,72.46,7.38
2.220000,0.0065,-0.0989,0,2,72.46,7.38
2.222000,0.0390,-0.0986,0,2,72.46,7.38
2.224000,-0.0146,-0.0980,0,2,72.46,7.38
2.226000,-0.0274,-0.0974,0,2,72.46,7.38
2.228000,0.0376,-0.0973,0,2,72.46,7.38
2.230000,0.0170,-0.0979,0,2,72.46,7.38
2.232000,0.0189,-0.0993,0,2,72.46,7.38
2.234000,0.0055,-0.1014,0,2,72.46,7.38
2.236000,-0.0148,-0.1040,0,2,72.46,7.38
2.238000,0.0169,-0.1064,0,2,72.46,7.38
2.240000,-0.0371,-0.1084,0,2,72.46,7.38
2.242000,-0.0160,-0.1097,0,2,72.46,7.38
2.244000,-0.0017,-0.1101,0,2,72.46,7.38
2.246000,-0.0084,-0.1100,0,2,72.46,7.38
2.248000,0.0156,-0.1097,0,2,72.46,7.38
2.250000,-0.0050,-0.1094,0,2,72.46,7.38
2.252000,0.0074,-0.1094,0,2,72.46,7.38
2.254000,0.0047,-0.1097,0,2,72.46,7.38
2.256000,-0.0074,-0.1100,0,2,72.46,7.38
2.258000,-0.0248,-0.1101,0,2,72.46,7.38
2.260000,-0.0224,-0.1095,0,2,72.46,7.38
2.262000,0.0021,-0.1084,0,2,72.46,7.38
2.264000,0.0006,-0.1068,0,2,72.46,7.38
2.266000,-0.0166,-0.1051,0,2,72.46,7.38
2.268000,0.0081,-0.1038,0,2,72.46,7.38
2.270000,0.0407,-0.1034,0,2,72.46,7.38
2.272000,-0.0024,-0.1041,0,2,72.46,7.38
2.274000,-0.0409,-0.1061,0,2,72.46,7.38
2.276000,0.0028,-0.1091,0,2,72.46,7.38
2.278000,0.0131,-0.1126,0,2,72.46,7.38
2.280000,0.0036,-0.1160,0,2,72.46,7.38
2.282000,-0.0623,-0.1186,0,2,72.46,7.38
2.284000,0.0331,-0.1199,0,2,72.46,7.38
2.286000,-0.0496,-0.1195,0,2,72.46,7.38
2.288000,-0.0160,-0.1176,0,2,72.46,7.38
2.290000,-0.0190,-0.1145,0,2,72.46,7.38
2.292000,-0.0038,-0.1109,0,2,72.46,7.38
2.294000,0.0008,-0.1075,0,2,72.46,7.38
2.296000,0.0017,-0.1051,0,2,72.46,7.38
2.298000,0.0238,-0.1041,0,2,72.46,7.38
2.300000,0.0121,-0.1044,0,2,72.46,7.38
2.302000,-0.0442,-0.1056,0,2,72.46,7.38
2.304000,0.0277,-0.1070,0,2,72.46,7.38
2.306000,0.0236,-0.1080,0,2,72.46,7.38
2.308000,-0.0299,-0.1078,0,2,72.46,7.38
2.310000,-0.0512,-0.1062,0,2,72.46,7.38
2.312000,-0.0023,-0.1036,0,2,72.46,7.38
2.314000,0.0035,-0.1005,0,2,72.46,7.38
2.316000,0.0214,-0.0980,0,2,72.46,7.38
2.318000,0.0473,-0.0969,0,2,72.46,7.38
2.320000,0.0010,-0.0978,0,2,72.46,7.38
2.322000,0.0158,-0.1008,0,2,72.46,7.38
2.324000,-0.0379,-0.1055,0,2,72.46,7.38
2.326000,0.0252,-0.1109,0,2,72.46,7.38
2.328000,-0.0250,-0.1161,0,2,72.46,7.38
2.330000,-0.0318,-0.1202,0,2,72.46,7.38
2.332000,-0.0189,-0.1226,0,2,72.46,7.38
2.334000,-0.0477,-0.1229,0,2,72.46,7.38
2.336000,0.0085,-0.1213,0,2,72.46,7.38
2.338000,0.0122,-0.1183,0,2,72.46,7.38
2.340000,-0.0220,-0.1146,0,2,72.46,7.38
2.342000,-0.0392,-0.1108,0,2,72.46,7.38
2.344000,0.0175,-0.1077,0,2,72.46,7.38
2.346000,-0.0063,-0.1057,0,2,72.46,7.38
2.348000,0.0087,-0.1052,0,2,72.46,7.38
2.350000,0.0160,-0.1061,0,2,72.46,7.38
2.352000,-0.0231,-0.1080,0,2,72.46,7.38
2.354000,0.0051,-0.1104,0,2,72.46,7.38
2.356000,-0.0110,-0.1126,0,2,72.46,7.38
2.358000,-0.0306,-0.1140,0,2,72.46,7.38
2.360000,-0.0237,-0.1143,0,2,72.46,7.38
2.362000,0.0094,-0.1133,0,2,72.46,7.38
2.364000,-0.0400,-0.1112,0,2,72.46,7.38
2.366000,0.0408,-0.1086,0,2,72.46,7.38
2.368000,0.0037,-0.1057,0,2,72.46,7.38
2.370000,-0.0051,-0.1031,0,2,72.46,7.38
2.372000,-0.0082,-0.1012,0,2,72.46,7.38
2.374000,-0.0088,-0.1002,0,2,72.46,7.38
2.376000,0.0141,-0.1000,0,2,72.46,7.38
2.378000,-0.0164,-0.1007,0,2,72.46,7.38
2.380000,0.0071,-0.1019,0,2,72.46,7.38
2.382000,0.0364,-0.1035,0,2,72.46,7.38
2.384000,0.0009,-0.1049,0,2,72.46,7.38
2.386000,-0.0164,-0.1058,0,2,72.46,7.38
2.388000,-0.0252,-0.1057,0,2,72.46,7.38
2.390000,-0.0007,-0.1046,0,2,72.46,7.38
2.392000,0.0149,-0.1026,0,2,72.46,7.38
2.394000,-0.0149,-0.1002,0,2,72.46,7.38
2.396000,0.0036,-0.0978,0,2,72.46,7.38
2.398000,0.0289,-0.0960,0,2,72.46,7.38
2.400000,-0.0141,-0.0952,0,2,72.46,7.38
2.402000,0.0325,-0.0958,0,2,72.46,7.38
2.404000,0.0136,-0.0975,0,2,72.46,7.38
2.406000,0.0014,-0.1000,0,2,72.46,7.38
2.408000,0.0104,-0.1029,0,2,72.46,7.38
2.410000,-0.0162,-0.1055,0,2,72.46,7.38
2.412000,-0.0280,-0.1075,0,2,72.46,7.38
2.414000,-0.0224,-0.1086,0,2,72.46,7.38
2.416000,0.0058,-0.1090,0,2,72.46,7.38
2.418000,0.0049,-0.1091,0,2,72.46,7.38
2.420000,0.0003,-0.1091,0,2,72.46,7.38
2.422000,-0.0070,-0.1093,0,2,72.46,7.38
2.424000,0.0104,-0.1098,0,2,72.46,7.38
2.426000,-0.0004,-0.1103,0,2,72.46,7.38
2.428000,-0.0008,-0.1105,0,2,72.46,7.38
2.430000,-0.0331,-0.1100,0,2,72.46,7.38
2.432000,-0.0238,-0.1085,0,2,72.46,7.38
2.434000,-0.0111,-0.1061,0,2,72.46,7.38
2.436000,0.0063,-0.1029,0,2,72.46,7.38
2.438000,-0.0074,-0.0995,0,2,72.46,7.38
2.440000,0.0454,-0.0964,0,2,72.46,7.38
2.442000,0.0074,-0.0938,0,2,72.46,7.38
2.444000,0.0287,-0.0920,0,2,72.46,7.38
2.446000,-0.0050,-0.0910,0,2,72.46,7.38
2.448000,-0.0056,-0.0904,0,2,72.46,7.38
2.450000,0.0150,-0.0901,0,2,72.46,7.38
2.452000,0.0310,-0.0899,0,2,72.46,7.38
2.454000,-0.0081,-0.0898,0,2,72.46,7.38
2.456000,-0.0003,-0.0899,0,2,72.46,7.38
2.458000,0.0229,-0.0904,0,2,72.46,7.38
2.460000,0.0009,-0.0917,0,2,72.46,7.38
2.462000,0.0331,-0.0939,0,2,72.46,7.38
2.464000,0.0286,-0.0972,0,2,72.46,7.38
2.466000,-0.0132,-0.1012,0,2,72.46,7.38
2.468000,-0.0078,-0.1057,0,2,72.46,7.38
2.470000,-0.0233,-0.1102,0,2,72.46,7.38
2.472000,-0.0389,-0.1142,0,2,72.46,7.38
2.474000,0.0305,-0.1174,0,2,72.46,7.38
2.476000,-0.0077,-0.1194,0,2,72.46,7.38
2.478000,-0.0417,-0.1203,0,2,72.46,7.38
2.480000,-0.0123,-0.1200,0,2,72.46,7.38
2.482000,-0.0325,-0.1187,0,2,72.46,7.38
2.484000,-0.0062,-0.1166,0,2,72.46,7.38
2.486000,-0.0284,-0.1142,0,2,72.46,7.38
2.488000,0.0106,-0.1119,0,2,72.46,7.38
2.490000,0.0064,-0.1098,0,2,72.46,7.38
2.492000,0.0205,-0.1081,0,2,72.46,7.38
2.494000,-0.0488,-0.1067,0,2,72.46,7.38
2.496000,0.0222,-0.1054,0,2,72.46,7.38
2.498000,-0.0265,-0.1039,0,2,72.46,7.38
2.500000,-0.0231,-0.1024,0,2,72.46,7.38
2.502000,0.0029,-0.1008,0,2,72.46,7.38
2.504000,0.0248,-0.0993,0,2,72.46,7.38
2.506000,0.0142,-0.0983,0,2,72.46,7.38
2.508000,0.0276,-0.0978,0,2,72.46,7.38
2.510000,-0.0054,-0.0979,0,2,72.46,7.38
2.512000,-0.0187,-0.0984,0,2,72.46,7.38
2.514000,-0.0040,-0.0991,0,2,72.46,7.38
2.516000,0.0089,-0.0997,0,2,72.46,7.38
2.518000,-0.0101,-0.1002,0,2,72.46,7.38
2.520000,0.0030,-0.1003,0,2,72.46,7.38
2.522000,0.0185,-0.1002,0,2,72.46,7.38
2.524000,0.0119,-0.0995,0,2,72.46,7.38
2.526000,0.0057,-0.0983,0,2,72.46,7.38
2.528000,0.0097,-0.0962,0,2,72.46,7.38
2.530000,-0.0130,-0.0932,0,2,72.46,7.38
2.532000,-0.0109,-0.0893,0,2,72.46,7.38
2.534000,0.0184,-0.0847,0,2,72.46,7.38
2.536000,0.0497,-0.0795,0,2,72.46,7.38
2.538000,0.0496,-0.0741,0,2,72.46,7.38
2.540000,0.0155,-0.0688,0,2,72.46,7.38
2.542000,0.0235,-0.0636,0,2,72.46,7.38
2.544000,0.0589,-0.0588,0,2,72.46,7.38
2.546000,0.0199,-0.0542,0,2,72.46,7.38
2.548000,0.0712,-0.0500,0,2,72.46,7.38
2.550000,0.0407,-0.0459,0,2,72.46,7.38
2.552000,0.0734,-0.0418,0,2,72.46,7.38
2.554000,0.0692,-0.0375,0,2,72.46,7.38
2.556000,0.0729,-0.0324,0,2,72.46,7.38
2.558000,0.1049,-0.0262,0,2,72.46,7.38
2.560000,0.0580,-0.0184,0,2,72.46,7.38
2.562000,0.0523,-0.0090,0,2,72.46,7.38
2.564000,0.0988,0.0020,0,2,72.46,7.38
2.566000,0.1424,0.0140,0,2,72.46,7.38
2.568000,0.1271,0.0263,0,2,72.46,7.38
2.570000,0.1347,0.0382,0,2,72.46,7.38
2.572000,0.1551,0.0490,0,2,72.46,7.38
2.574000,0.1942,0.0581,0,2,72.46,7.38
2.576000,0.1557,0.0655,0,2,72.46,7.38
2.578000,0.1425,0.0712,0,2,72.46,7.38
2.580000,0.1854,0.0755,0,2,72.46,7.38
2.582000,0.2104,0.0789,0,2,72.46,7.38
2.584000,0.1453,0.0815,0,2,72.46,7.38
2.586000,0.1782,0.0835,0,2,72.46,7.38
2.588000,0.1818,0.0847,0,2,72.46,7.38
2.590000,0.1858,0.0849,0,2,72.46,7.38
2.592000,0.2149,0.0836,0,2,72.46,7.38
2.594000,0.1815,0.0808,0,2,72.46,7.38
2.596000,0.1717,0.0763,0,2,72.46,7.38
2.598000,0.1816,0.0704,0,2,72.46,7.38
2.600000,0.1463,0.0634,0,2,72.46,7.38
2.602000,0.1542,0.0559,0,2,72.46,7.38
2.604000,0.1686,0.0484,0,2,72.46,7.38
2.606000,0.1336,0.0414,0,2,72.46,7.38
2.608000,0.1220,0.0352,0,2,72.46,7.38
2.610000,0.1317,0.0298,0,2,72.46,7.38
2.612000,0.1279,0.0251,0,2,72.46,7.38
2.614000,0.1102,0.0207,0,2,72.46,7.38
2.616000,0.1245,0.0161,0,2,72.46,7.38
2.618000,0.1487,0.0110,0,2,72.46,7.38
2.620000,0.1092,0.0050,0,2,72.46,7.38
2.622000,0.0658,-0.0020,0,2,72.46,7.38
2.624000,0.0765,-0.0101,0,2,72.46,7.38
2.626000,0.0798,-0.0192,0,2,72.46,7.38
2.628000,0.0773,-0.0292,0,2,72.46,7.38
2.630000,0.0610,-0.0399,0,2,72.46,7.38
2.632000,0.0624,-0.0509,0,2,72.46,7.38
2.634000,0.0550,-0.0617,0,2,72.46,7.38
2.636000,0.0488,-0.0715,0,2,72.46,7.38
2.638000,0.0067,-0.0794,0,2,72.46,7.38
2.640000,-0.0154,-0.0849,0,2,72.46,7.38
2.642000,0.0143,-0.0875,0,2,72.46,7.38
2.644000,-0.0017,-0.0876,0,2,72.46,7.38
2.646000,0.0352,-0.0855,0,2,72.46,7.38
2.648000,-0.0009,-0.0824,0,2,72.46,7.38
2.650000,0.0355,-0.0793,0,2,72.46,7.38
2.652000,-0.0038,-0.0768,0,2,72.46,7.38
2.654000,0.0546,-0.0751,0,2,72.46,7.38
2.656000,0.0376,-0.0735,0,2,72.46,7.38
2.658000,0.0280,-0.0699,0,2,72.46,7.38
2.660000,0.0525,-0.0613,0,2,72.46,7.38
2.662000,0.0367,-0.0437,0,2,72.46,7.38
2.664000,0.0993,-0.0124,0,2,72.46,7.38
2.666000,0.1704,0.0373,0,2,72.46,7.38
2.668000,0.1891,0.1092,0,2,72.46,7.38
2.670000,0.2954,0.2058,0,2,72.46,7.38
2.672000,0.4364,0.3276,0,2,72.46,7.38
2.674000,0.5502,0.4724,0,2,72.46,7.38
2.676000,0.6975,0.6352,0,2,72.46,7.38
2.678000,0.9204,0.8082,0,2,72.46,7.38
2.680000,1.0581,0.9816,0,2,72.46,7.38
2.682000,1.2675,1.1441,0,2,72.46,7.38
2.684000,1.4054,1.2841,0,2,72.46,7.38
2.686000,1.4859,1.3911,0,2,72.46,7.38
2.688000,1.5526,1.4565,1,2,72.46,7.38
2.690000,1.5779,1.4746,1,2,72.46,7.38
2.692000,1.5764,1.4432,1,2,72.46,7.38
2.694000,1.4739,1.3641,0,2,72.46,7.38
2.696000,1.3235,1.2425,0,2,72.46,7.38
2.698000,1.2033,1.0869,0,2,72.46,7.38
2.700000,0.9969,0.9082,0,2,72.46,7.38
2.702000,0.8169,0.7186,0,2,72.46,7.38
2.704000,0.6441,0.5303,0,2,72.46,7.38
2.706000,0.4511,0.3544,0,2,72.46,7.38
2.708000,0.2848,0.2002,0,2,72.46,7.38
2.710000,0.1132,0.0739,0,2,72.46,7.38
2.712000,0.0961,-0.0215,0,2,72.46,7.38
2.714000,-0.0155,-0.0865,0,2,72.46,7.38
2.716000,0.0033,-0.1239,0,2,72.46,7.38
2.718000,-0.0284,-0.1388,0,2,72.46,7.38
2.720000,-0.0288,-0.1373,0,2,72.46,7.38
2.722000,0.0103,-0.1254,0,2,72.46,7.38
2.724000,-0.0238,-0.1086,0,2,72.46,7.38
2.726000,0.0200,-0.0910,0,2,72.46,7.38
2.728000,0.0241,-0.0753,0,2,72.46,7.38
2.730000,0.0359,-0.0629,0,2,72.46,7.38
2.732000,0.0206,-0.0539,0,2,72.46,7.38
2.734000,0.0440,-0.0478,0,2,72.46,7.38
2.736000,0.0800,-0.0435,0,2,72.46,7.38
2.738000,0.0637,-0.0398,0,2,72.46,7.38
2.740000,0.0354,-0.0358,0,2,72.46,7.38
2.742000,0.0522,-0.0306,0,2,72.46,7.38
2.744000,0.0861,-0.0239,0,2,72.46,7.38
2.746000,0.0904,-0.0158,0,2,72.46,7.38
2.748000,0.0885,-0.0065,0,2,72.46,7.38
2.750000,0.1438,0.0036,0,2,72.46,7.38
2.752000,0.0949,0.0144,0,2,72.46,7.38
2.754000,0.1398,0.0256,0,2,72.46,7.38
2.756000,0.1038,0.0370,0,2,72.46,7.38
2.758000,0.1758,0.0487,0,2,72.46,7.38
2.760000,0.1207,0.0604,0,2,72.46,7.38
2.762000,0.1801,0.0719,0,2,72.46,7.38
2.764000,0.1781,0.0830,0,2,72.46,7.38
2.766000,0.1843,0.0935,0,2,72.46,7.38
2.768000,0.2343,0.1032,0,2,72.46,7.38
2.770000,0.2140,0.1121,0,2,72.46,7.38
2.772000,0.2453,0.1207,0,2,72.46,7.38
2.774000,0.2203,0.1291,0,2,72.46,7.38
2.776000,0.2009,0.1380,0,2,72.46,7.38
2.778000,0.2368,0.1476,0,2,72.46,7.38
2.780000,0.2479,0.1579,0,2,72.46,7.38
2.782000,0.2689,0.1687,0,2,72.46,7.38
2.784000,0.3029,0.1795,0,2,72.46,7.38
2.786000,0.2944,0.1898,0,2,72.46,7.38
2.788000,0.3214,0.1993,0,2,72.46,7.38
2.790000,0.2907,0.2078,0,2,72.46,7.38
2.792000,0.2886,0.2152,0,2,72.46,7.38
2.794000,0.3217,0.2216,0,2,72.46,7.38
2.796000,0.3445,0.2270,0,2,72.46,7.38
2.798000,0.3256,0.2315,0,2,72.46,7.38
2.800000,0.3442,0.2353,0,2,72.46,7.38
2.802000,0.3281,0.2385,0,2,72.46,7.38
2.804000,0.3256,0.2411,0,2,72.46,7.38
2.806000,0.3392,0.2432,0,2,72.46,7.38
2.808000,0.3323,0.2446,0,2,72.46,7.38
2.810000,0.3752,0.2453,0,2,72.46,7.38
2.812000,0.3690,0.2452,0,2,72.46,7.38
2.814000,0.3236,0.2445,0,2,72.46,7.38
2.816000,0.3377,0.2431,0,2,72.46,7.38
2.818000,0.3279,0.2411,0,2,72.46,7.38
2.820000,0.3175,0.2386,0,2,72.46,7.38
2.822000,0.3612,0.2354,0,2,72.46,7.38
2.824000,0.3236,0.2315,0,2,72.46,7.38
2.826000,0.3346,0.2265,0,2,72.46,7.38
2.828000,0.3070,0.2203,0,2,72.46,7.38
2.830000,0.3020,0.2129,0,2,72.46,7.38
2.832000,0.3093,0.2043,0,2,72.46,7.38
2.834000,0.3186,0.1946,0,2,72.46,7.38
2.836000,0.2967,0.1842,0,2,72.46,7.38
2.838000,0.2557,0.1736,0,2,72.46,7.38
2.840000,0.2301,0.1633,0,2,72.46,7.38
2.842000,0.2697,0.1535,0,2,72.46,7.38
2.844000,0.2444,0.1446,0,2,72.46,7.38
2.846000,0.2376,0.1363,0,2,72.46,7.38
2.848000,0.2083,0.1283,0,2,72.46,7.38
2.850000,0.1968,0.1199,0,2,72.46,7.38
2.852000,0.2187,0.1106,0,2,72.46,7.38
2.854000,0.2176,0.0998,0,2,72.46,7.38
2.856000,0.2445,0.0876,0,2,72.46,7.38
2.858000,0.1656,0.0744,0,2,72.46,7.38
2.860000,0.1274,0.0608,0,2,72.46,7.38
2.862000,0.1339,0.0479,0,2,72.46,7.38
2.864000,0.1166,0.0366,0,2,72.46,7.38
2.866000,0.1247,0.0273,0,2,72.46,7.38
2.868000,0.1137,0.0201,0,2,72.46,7.38
2.870000,0.1306,0.0146,0,2,72.46,7.38
2.872000,0.1190,0.0100,0,2,72.46,7.38
2.874000,0.0991,0.0057,0,2,72.46,7.38
2.876000,0.1128,0.0007,0,2,72.46,7.38
2.878000,0.0897,-0.0052,0,2,72.46,7.38
2.880000,0.0833,-0.0125,0,2,72.46,7.38
2.882000,0.0728,-0.0209,0,2,72.46,7.38
2.884000,0.0466,-0.0303,0,2,72.46,7.38
2.886000,0.0565,-0.0400,0,2,72.46,7.38
2.888000,0.0927,-0.0496,0,2,72.46,7.38
2.890000,0.0195,-0.0584,0,2,72.46,7.38
2.892000,0.0453,-0.0659,0,2,72.46,7.38
2.894000,0.0046,-0.0717,0,2,72.46,7.38
2.896000,0.0355,-0.0756,0,2,72.46,7.38
2.898000,0.0243,-0.0777,0,2,72.46,7.38
2.900000,-0.0074,-0.0784,0,2,72.46,7.38
2.902000,-0.0028,-0.0782,0,2,72.46,7.38
2.904000,0.0455,-0.0777,0,2,72.46,7.38
2.906000,0.0402,-0.0776,0,2,72.46,7.38
2.908000,0.0258,-0.0783,0,2,72.46,7.38
2.910000,0.0319,-0.0797,0,2,72.46,7.38
2.912000,0.0289,-0.0818,0,2,72.46,7.38
2.914000,-0.0282,-0.0843,0,2,72.46,7.38
2.916000,-0.0017,-0.0868,0,2,72.46,7.38
2.918000,0.0092,-0.0892,0,2,72.46,7.38
2.920000,0.0276,-0.0914,0,2,72.46,7.38
2.922000,-0.0208,-0.0936,0,2,72.46,7.38
2.924000,0.0128,-0.0959,0,2,72.46,7.38
2.926000,0.0204,-0.0984,0,2,72.46,7.38
2.928000,-0.0017,-0.1011,0,2,72.46,7.38
2.930000,0.0142,-0.1038,0,2,72.46,7.38
2.932000,-0.0375,-0.1061,0,2,72.46,7.38
2.934000,-0.0145,-0.1078,0,2,72.46,7.38
2.936000,-0.0093,-0.1088,0,2,72.46,7.38
2.938000,-0.0025,-0.1091,0,2,72.46,7.38
2.940000,-0.0418,-0.1087,0,2,72.46,7.38
2.942000,0.0090,-0.1080,0,2,72.46,7.38
2.944000,-0.0195,-0.1074,0,2,72.46,7.38
2.946000,-0.0001,-0.1069,0,2,72.46,7.38
2.948000,0.0170,-0.1065,0,2,72.46,7.38
2.950000,0.0119,-0.1062,0,2,72.46,7.38
2.952000,-0.0170,-0.1054,0,2,72.46,7.38
2.954000,-0.0352,-0.1038,0,2,72.46,7.38
2.956000,-0.0247,-0.1013,0,2,72.46,7.38
2.958000,0.0155,-0.0979,0,2,72.46,7.38
2.960000,-0.0077,-0.0940,0,2,72.46,7.38
2.962000,0.0175,-0.0902,0,2,72.46,7.38
2.964000,0.0204,-0.0870,0,2,72.46,7.38
2.966000,0.0289,-0.0849,0,2,72.46,7.38
2.968000,0.0107,-0.0842,0,2,72.46,7.38
2.970000,0.0116,-0.0848,0,2,72.46,7.38
2.972000,0.0160,-0.0866,0,2,72.46,7.38
2.974000,0.0087,-0.0891,0,2,72.46,7.38
2.976000,-0.0223,-0.0920,0,2,72.46,7.38
2.978000,-0.0262,-0.0950,0,2,72.46,7.38
2.980000,0.0538,-0.0979,0,2,72.46,7.38
2.982000,0.0109,-0.1003,0,2,72.46,7.38
2.984000,-0.0022,-0.1022,0,2,72.46,7.38
2.986000,-0.0207,-0.1031,0,2,72.46,7.38
2.988000,-0.0197,-0.1030,0,2,72.46,7.38
2.990000,-0.0138,-0.1019,0,2,72.46,7.38
2.992000,0.0015,-0.1001,0,2,72.46,7.38
2.994000,0.0187,-0.0980,0,2,72.46,7.38
2.996000,0.0118,-0.0962,0,2,72.46,7.38
2.998000,-0.0191,-0.0951,0,2,72.46,7.38
3.000000,0.0112,-0.0949,0,2,72.46,7.38
3.002000,0.0102,-0.0959,0,2,72.46,7.38
3.004000,0.0019,-0.0978,0,2,72.46,7.38
3.006000,0.0026,-0.1002,0,2,72.46,7.38
3.008000,-0.0305,-0.1029,0,2,72.46,7.38
3.010000,-0.0022,-0.1052,0,2,72.46,7.38
3.012000,0.0081,-0.1068,0,2,72.46,7.38
3.014000,0.0002,-0.1076,0,2,72.46,7.38
3.016000,-0.0235,-0.1075,0,2,72.46,7.38
3.018000,-0.0187,-0.1066,0,2,72.46,7.38
3.020000,-0.0246,-0.1052,0,2,72.46,7.38
3.022000,0.0235,-0.1037,0,2,72.46,7.38
3.024000,0.0042,-0.1025,0,2,72.46,7.38
3.026000,-0.0005,-0.1019,0,2,72.46,7.38
3.028000,-0.0312,-0.1021,0,2,72.46,7.38
3.030000,-0.0009,-0.1032,0,2,72.46,7.38
3.032000,-0.0069,-0.1050,0,2,72.46,7.38
3.034000,0.0148,-0.1073,0,2,72.46,7.38
3.036000,-0.0033,-0.1098,0,2,72.46,7.38
3.038000,-0.0313,-0.1121,0,2,72.46,7.38
3.040000,-0.0174,-0.1137,0,2,72.46,7.38
3.042000,-0.0044,-0.1143,0,2,72.46,7.38
3.044000,-0.0282,-0.1139,0,2,72.46,7.38
3.046000,-0.0422,-0.1124,0,2,72.46,7.38
3.048000,-0.0058,-0.1103,0,2,72.46,7.38
3.050000,0.0075,-0.1081,0,2,72.46,7.38
3.052000,-0.0041,-0.1063,0,2,72.46,7.38
3.054000,0.0178,-0.1054,0,2,72.46,7.38
3.056000,-0.0024,-0.1055,0,2,72.46,7.38
3.058000,-0.0447,-0.1066,0,2,72.46,7.38
3.060000,0.0042,-0.1083,0,2,72.46,7.38
3.062000,0.0033,-0.1103,0,2,72.46,7.38
3.064000,-0.0411,-0.1122,0,2,72.46,7.38
3.066000,-0.0281,-0.1135,0,2,72.46,7.38
3.068000,0.0025,-0.1142,0,2,72.46,7.38
3.070000,-0.0113,-0.1143,0,2,72.46,7.38
3.072000,-0.0028,-0.1137,0,2,72.46,7.38
3.074000,-0.0207,-0.1128,0,2,72.46,7.38
3.076000,-0.0159,-0.1116,0,2,72.46,7.38
3.078000,-0.0189,-0.1105,0,2,72.46,7.38
3.080000,-0.0020,-0.1097,0,2,72.46,7.38
3.082000,-0.0207,-0.1091,0,2,72.46,7.38
3.084000,0.0095,-0.1089,0,2,72.46,7.38
3.086000,-0.0156,-0.1089,0,2,72.46,7.38
3.088000,-0.0170,-0.1090,0,2,72.46,7.38
3.090000,-0.0081,-0.1090,0,2,72.46,7.38
3.092000,-0.0320,-0.1090,0,2,72.46,7.38
3.094000,0.0051,-0.1087,0,2,72.46,7.38
3.096000,0.0275,-0.1081,0,2,72.46,7.38
3.098000,-0.0316,-0.1073,0,2,72.46,7.38
3.100000,-0.0235,-0.1062,0,2,72.46,7.38
3.102000,-0.0075,-0.1047,0,2,72.46,7.38
3.104000,0.0241,-0.1027,0,2,72.46,7.38
3.106000,-0.0032,-0.1003,0,2,72.46,7.38
3.108000,-0.0132,-0.0974,0,2,72.46,7.38
3.110000,-0.0025,-0.0943,0,2,72.46,7.38
3.112000,0.0158,-0.0911,0,2,72.46,7.38
3.114000,0.0014,-0.0884,0,2,72.46,7.38
3.116000,0.0064,-0.0866,0,2,72.46,7.38
3.118000,0.0510,-0.0860,0,2,72.46,7.38
3.120000,-0.0048,-0.0868,0,2,72.46,7.38
3.122000,0.0260,-0.0887,0,2,72.46,7.38
3.124000,-0.0106,-0.0914,0,2,72.46,7.38
3.126000,0.0078,-0.0943,0,2,72.46,7.38
3.128000,0.0057,-0.0966,0,2,72.46,7.38
3.130000,-0.0055,-0.0976,0,2,72.46,7.38
3.132000,0.0156,-0.0971,0,2,72.46,7.38
3.134000,0.0057,-0.0948,0,2,72.46,7.38
3.136000,-0.0128,-0.0911,0,2,72.46,7.38
3.138000,0.0191,-0.0864,0,2,72.46,7.38
3.140000,0.0208,-0.0817,0,2,72.46,7.38
3.142000,0.0317,-0.0778,0,2,72.46,7.38
3.144000,-0.0244,-0.0756,0,2,72.46,7.38
3.146000,0.0659,-0.0755,0,2,72.46,7.38
3.148000,0.0492,-0.0777,0,2,72.46,7.38
3.150000,0.0097,-0.0820,0,2,72.46,7.38
3.152000,0.0039,-0.0875,0,2,72.46,7.38
3.154000,-0.0039,-0.0934,0,2,72.46,7.38
3.156000,0.0157,-0.0987,0,2,72.46,7.38
3.158000,-0.0075,-0.1025,0,2,72.46,7.38
3.160000,0.0162,-0.1043,0,2,72.46,7.38
3.162000,-0.0398,-0.1041,0,2,72.46,7.38
3.164000,-0.0501,-0.1022,0,2,72.46,7.38
3.166000,0.0317,-0.0996,0,2,72.46,7.38
3.168000,0.0162,-0.0971,0,2,72.46,7.38
3.170000,0.0194,-0.0955,0,2,72.46,7.38
3.172000,0.0381,-0.0955,0,2,72.46,7.38
3.174000,-0.0140,-0.0969,0,2,72.46,7.38
3.176000,0.0137,-0.0994,0,2,72.46,7.38
3.178000,-0.0224,-0.1023,0,2,72.46,7.38
3.180000,-0.0026,-0.1048,0,2,72.46,7.38
3.182000,-0.0242,-0.1062,0,2,72.46,7.38
3.184000,-0.0237,-0.1064,0,2,72.46,7.38
3.186000,0.0007,-0.1052,0,2,72.46,7.38
3.188000,-0.0095,-0.1032,0,2,72.46,7.38
3.190000,0.0138,-0.1009,0,2,72.46,7.38
3.192000,0.0501,-0.0987,0,2,72.46,7.38
3.194000,0.0038,-0.0968,0,2,72.46,7.38
3.196000,-0.0055,-0.0954,0,2,72.46,7.38
3.198000,-0.0115,-0.0942,0,2,72.46,7.38
3.200000,-0.0057,-0.0931,0,2,72.46,7.38
3.202000,0.0133,-0.0921,0,2,72.46,7.38
3.204000,0.0036,-0.0910,0,2,72.46,7.38
3.206000,-0.0018,-0.0901,0,2,72.46,7.38
3.208000,0.0451,-0.0897,0,2,72.46,7.38
3.210000,0.0059,-0.0899,0,2,72.46,7.38
3.212000,0.0241,-0.0909,0,2,72.46,7.38
3.214000,0.0087,-0.0926,0,2,72.46,7.38
3.216000,-0.0241,-0.0949,0,2,72.46,7.38
3.218000,0.0119,-0.0977,0,2,72.46,7.38
3.220000,0.0216,-0.1006,0,2,72.46,7.38
3.222000,-0.0021,-0.1034,0,2,72.46,7.38
3.224000,-0.0192,-0.1057,0,2,72.46,7.38
3.226000,-0.0205,-0.1072,0,2,72.46,7.38
3.228000,0.0262,-0.1077,0,2,72.46,7.38
3.230000,-0.0500,-0.1073,0,2,72.46,7.38
3.232000,0.0362,-0.1058,0,2,72.46,7.38
3.234000,0.0015,-0.1036,0,2,72.46,7.38
3.236000,-0.0115,-0.1007,0,2,72.46,7.38
3.238000,0.0157,-0.0976,0,2,72.46,7.38
3.240000,-0.0230,-0.0946,0,2,72.46,7.38
3.242000,0.0247,-0.0920,0,2,72.46,7.38
3.244000,0.0271,-0.0901,0,2,72.46,7.38
3.246000,0.0189,-0.0891,0,2,72.46,7.38
3.248000,-0.0125,-0.0890,0,2,72.46,7.38
3.250000,-0.0101,-0.0900,0,2,72.46,7.38
3.252000,0.0460,-0.0918,0,2,72.46,7.38
3.254000,0.0135,-0.0942,0,2,72.46,7.38
3.256000,0.0099,-0.0970,0,2,72.46,7.38
3.258000,0.0075,-0.0998,0,2,72.46,7.38
3.260000,0.0008,-0.1022,0,2,72.46,7.38
3.262000,-0.0108,-0.1038,0,2,72.46,7.38
3.264000,-0.0411,-0.1046,0,2,72.46,7.38
3.266000,0.0080,-0.1046,0,2,72.46,7.38
3.268000,0.0156,-0.1041,0,2,72.46,7.38
3.270000,0.0055,-0.1034,0,2,72.46,7.38
3.272000,0.0096,-0.1029,0,2,72.46,7.38
3.274000,0.0042,-0.1027,0,2,72.46,7.38
3.276000,-0.0226,-0.1031,0,2,72.46,7.38
3.278000,0.0131,-0.1039,0,2,72.46,7.38
3.280000,0.0016,-0.1049,0,2,72.46,7.38
3.282000,-0.0096,-0.1060,0,2,72.46,7.38
3.284000,0.0106,-0.1068,0,2,72.46,7.38
3.286000,-0.0246,-0.1071,0,2,72.46,7.38
3.288000,-0.0031,-0.1069,0,2,72.46,7.38
3.290000,0.0087,-0.1062,0,2,72.46,7.38
3.292000,-0.0211,-0.1053,0,2,72.46,7.38
3.294000,-0.0094,-0.1046,0,2,72.46,7.38
3.296000,0.0112,-0.1046,0,2,72.46,7.38
3.298000,0.0186,-0.1055,0,2,72.46,7.38
3.300000,0.0148,-0.1076,0,2,72.46,7.38
3.302000,-0.0039,-0.1106,0,2,72.46,7.38
3.304000,-0.0374,-0.1142,0,2,72.46,7.38
3.306000,-0.0235,-0.1180,0,2,72.46,7.38
3.308000,-0.0305,-0.1215,0,2,72.46,7.38
3.310000,-0.0097,-0.1243,0,2,72.46,7.38
3.312000,-0.0171,-0.1264,0,2,72.46,7.38
3.314000,-0.0188,-0.1277,0,2,72.46,7.38
3.316000,-0.0159,-0.1284,0,2,72.46,7.38
3.318000,-0.0345,-0.1285,0,2,72.46,7.38
3.320000,-0.0100,-0.1280,0,2,72.46,7.38
3.322000,-0.0199,-0.1269,0,2,72.46,7.38
3.324000,-0.0185,-0.1251,0,2,72.46,7.38
3.326000,-0.0331,-0.1225,0,2,72.46,7.38
3.328000,-0.0070,-0.1191,0,2,72.46,7.38
3.330000,-0.0504,-0.1150,0,2,72.46,7.38
3.332000,0.0440,-0.1106,0,2,72.46,7.38
3.334000,-0.0411,-0.1063,0,2,72.46,7.38
3.336000,0.0263,-0.1024,0,2,72.46,7.38
3.338000,0.0074,-0.0995,0,2,72.46,7.38
3.340000,0.0115,-0.0974,0,2,72.46,7.38
3.342000,0.0467,-0.0962,0,2,72.46,7.38
3.344000,0.0097,-0.0954,0,2,72.46,7.38
3.346000,-0.0388,-0.0946,0,2,72.46,7.38
3.348000,-0.0012,-0.0933,0,2,72.46,7.38
3.350000,0.0023,-0.0914,0,2,72.46,7.38
3.352000,0.0493,-0.0889,0,2,72.46,7.38
3.354000,0.0322,-0.0863,0,2,72.46,7.38
3.356000,0.0131,-0.0838,0,2,72.46,7.38
3.358000,0.0273,-0.0818,0,2,72.46,7.38
3.360000,0.0388,-0.0804,0,2,72.46,7.38
3.362000,0.0131,-0.0797,0,2,72.46,7.38
3.364000,0.0375,-0.0792,0,2,72.46,7.38
3.366000,0.0129,-0.0788,0,2,72.46,7.38
3.368000,0.0263,-0.0777,0,2,72.46,7.38
3.370000,0.0282,-0.0758,0,2,72.46,7.38
3.372000,0.0418,-0.0725,0,2,72.46,7.38
3.374000,0.0478,-0.0676,0,2,72.46,7.38
3.376000,0.0176,-0.0613,0,2,72.46,7.38
3.378000,0.0819,-0.0534,0,2,72.46,7.38
3.380000,0.0687,-0.0443,0,2,72.46,7.38
3.382000,0.0560,-0.0341,0,2,72.46,7.38
3.384000,0.0922,-0.0232,0,2,72.46,7.38
3.386000,0.0880,-0.0119,0,2,72.46,7.38
3.388000,0.1031,-0.0007,0,2,72.46,7.38
3.390000,0.1199,0.0100,0,2,72.46,7.38
3.392000,0.1136,0.0199,0,2,72.46,7.38
3.394000,0.1298,0.0285,0,2,72.46,7.38
3.396000,0.1894,0.0357,0,2,72.46,7.38
3.398000,0.1615,0.0414,0,2,72.46,7.38
3.400000,0.1166,0.0458,0,2,72.46,7.38
3.402000,0.1529,0.0491,0,2,72.46,7.38
3.404000,0.1546,0.0518,0,2,72.46,7.38
3.406000,0.1723,0.0542,0,2,72.46,7.38
3.408000,0.1642,0.0564,0,2,72.46,7.38
3.410000,0.1774,0.0587,0,2,72.46,7.38
3.412000,0.1414,0.0610,0,2,72.46,7.38
3.414000,0.1834,0.0632,0,2,72.46,7.38
3.416000,0.1910,0.0652,0,2,72.46,7.38
3.418000,0.1918,0.0667,0,2,72.46,7.38
3.420000,0.1641,0.0675,0,2,72.46,7.38
3.422000,0.1421,0.0671,0,2,72.46,7.38
3.424000,0.1690,0.0651,0,2,72.46,7.38
3.426000,0.1739,0.0614,0,2,72.46,7.38
3.428000,0.1950,0.0556,0,2,72.46,7.38
3.430000,0.1428,0.0476,0,2,72.46,7.38
3.432000,0.1694,0.0379,0,2,72.46,7.38
3.434000,0.1377,0.0268,0,2,72.46,7.38
3.436000,0.1258,0.0152,0,2,72.46,7.38
3.438000,0.0977,0.0038,0,2,72.46,7.38
3.440000,0.0637,-0.0066,0,2,72.46,7.38
3.442000,0.1182,-0.0158,0,2,72.46,7.38
3.444000,0.0815,-0.0235,0,2,72.46,7.38
3.446000,0.1034,-0.0299,0,2,72.46,7.38
3.448000,0.0861,-0.0350,0,2,72.46,7.38
3.450000,0.0637,-0.0393,0,2,72.46,7.38
3.452000,0.0426,-0.0429,0,2,72.46,7.38
3.454000,0.0568,-0.0464,0,2,72.46,7.38
3.456000,0.0573,-0.0499,0,2,72.46,7.38
3.458000,0.0744,-0.0539,0,2,72.46,7.38
3.460000,0.0792,-0.0584,0,2,72.46,7.38
3.462000,0.0543,-0.0634,0,2,72.46,7.38
3.464000,0.0040,-0.0687,0,2,72.46,7.38
3.466000,0.0524,-0.0739,0,2,72.46,7.38
3.468000,0.0346,-0.0787,0,2,72.46,7.38
3.470000,0.0071,-0.0831,0,2,72.46,7.38
3.472000,0.0186,-0.0872,0,2,72.46,7.38
3.474000,0.0179,-0.0913,0,2,72.46,7.38
3.476000,0.0232,-0.0957,0,2,72.46,7.38
3.478000,0.0162,-0.1005,0,2,72.46,7.38
3.480000,-0.0094,-0.1051,0,2,72.46,7.38
3.482000,0.0012,-0.1082,0,2,72.46,7.38
3.484000,-0.0007,-0.1075,0,2,72.46,7.38
3.486000,0.0898,-0.0997,0,2,72.46,7.38
3.488000,0.0167,-0.0805,0,2,72.46,7.38
3.490000,0.0567,-0.0454,0,2,72.46,7.38
3.492000,0.1179,0.0102,0,2,72.46,7.38
3.494000,0.2005,0.0897,0,2,72.46,7.38
3.496000,0.3010,0.1948,0,2,72.46,7.38
3.498000,0.3838,0.3250,0,2,72.46,7.38
3.500000,0.5827,0.4770,0,2,72.46,7.38
3.502000,0.7929,0.6449,0,2,72.46,7.38
3.504000,0.9567,0.8206,0,2,72.46,7.38
3.506000,1.0615,0.9942,0,2,72.46,7.38
3.508000,1.2914,1.1552,0,2,72.46,7.38
3.510000,1.3930,1.2928,0,2,72.46,7.38
3.512000,1.5202,1.3972,0,2,72.46,7.38
3.514000,1.5534,1.4606,1,2,72.46,7.38
3.516000,1.6121,1.4775,1,2,72.46,7.38
3.518000,1.5669,1.4458,1,2,72.46,7.38
3.520000,1.4886,1.3668,0,2,72.46,7.38
3.522000,1.3770,1.2455,0,2,72.46,7.38
3.524000,1.2170,1.0898,0,2,72.46,7.38
3.526000,1.0258,0.9105,0,2,72.46,7.38
3.528000,0.8040,0.7194,0,2,72.46,7.38
3.530000,0.6441,0.5289,0,2,72.46,7.38
3.532000,0.4558,0.3503,0,2,72.46,7.38
3.534000,0.2931,0.1930,0,2,72.46,7.38
3.536000,0.2072,0.0636,0,2,72.46,7.38
3.538000,0.0395,-0.0345,0,2,72.46,7.38
3.540000,-0.0169,-0.1012,0,2,72.46,7.38
3.542000,-0.0559,-0.1394,0,2,72.46,7.38
3.544000,0.0135,-0.1539,0,2,72.46,7.38
3.546000,-0.0166,-0.1512,0,2,72.46,7.38
3.548000,-0.0137,-0.1378,0,2,72.46,7.38
3.550000,-0.0049,-0.1195,0,2,72.46,7.38
3.552000,0.0523,-0.1009,0,2,72.46,7.38
3.554000,0.0014,-0.0849,0,2,72.46,7.38
3.556000,0.0492,-0.0728,0,2,72.46,7.38
3.558000,0.0508,-0.0643,0,2,72.46,7.38
3.560000,0.0515,-0.0584,0,2,72.46,7.38
3.562000,0.0457,-0.0534,0,2,72.46,7.38
3.564000,0.0784,-0.0478,0,2,72.46,7.38
3.566000,0.0497,-0.0404,0,2,72.46,7.38
3.568000,0.0541,-0.0308,0,2,72.46,7.38
3.570000,0.1193,-0.0191,0,2,72.46,7.38
3.572000,0.1067,-0.0062,0,2,72.46,7.38
3.574000,0.1492,0.0071,0,2,72.46,7.38
3.576000,0.1452,0.0196,0,2,72.46,7.38
3.578000,0.1663,0.0307,0,2,72.46,7.38
3.580000,0.1542,0.0403,0,2,72.46,7.38
3.582000,0.1486,0.0484,0,2,72.46,7.38
3.584000,0.1535,0.0556,0,2,72.46,7.38
3.586000,0.1723,0.0623,0,2,72.46,7.38
3.588000,0.1770,0.0689,0,2,72.46,7.38
3.590000,0.2047,0.0757,0,2,72.46,7.38
3.592000,0.2065,0.0827,0,2,72.46,7.38
3.594000,0.2003,0.0900,0,2,72.46,7.38
3.596000,0.2265,0.0974,0,2,72.46,7.38
3.598000,0.2362,0.1050,0,2,72.46,7.38
3.600000,0.2335,0.1130,0,2,72.46,7.38
3.602000,0.1969,0.1214,0,2,72.46,7.38
3.604000,0.2536,0.1306,0,2,72.46,7.38
3.606000,0.2815,0.1407,0,2,72.46,7.38
3.608000,0.2688,0.1517,0,2,72.46,7.38
3.610000,0.2865,0.1634,0,2,72.46,7.38
3.612000,0.2588,0.1756,0,2,72.46,7.38
3.614000,0.3126,0.1877,0,2,72.46,7.38
3.616000,0.3262,0.1990,0,2,72.46,7.38
3.618000,0.3153,0.2090,0,2,72.46,7.38
3.620000,0.3497,0.2168,0,2,72.46,7.38
3.622000,0.3695,0.2223,0,2,72.46,7.38
3.624000,0.3252,0.2253,0,2,72.46,7.38
3.626000,0.3177,0.2260,0,2,72.46,7.38
3.628000,0.3624,0.2250,0,2,72.46,7.38
3.630000,0.3286,0.2228,0,2,72.46,7.38
3.632000,0.3503,0.2201,0,2,72.46,7.38
3.634000,0.3483,0.2174,0,2,72.46,7.38
3.636000,0.3147,0.2153,0,2,72.46,7.38
3.638000,0.3295,0.2140,0,2,72.46,7.38
3.640000,0.3447,0.2135,0,2,72.46,7.38
3.642000,0.3450,0.2139,0,2,72.46,7.38
3.644000,0.3137,0.2147,0,2,72.46,7.38
3.646000,0.3338,0.2155,0,2,72.46,7.38
3.648000,0.3193,0.2157,0,2,72.46,7.38
3.650000,0.3461,0.2146,0,2,72.46,7.38
3.652000,0.3302,0.2117,0,2,72.46,7.38
3.654000,0.3430,0.2066,0,2,72.46,7.38
3.656000,0.3266,0.1991,0,2,72.46,7.38
3.658000,0.3212,0.1895,0,2,72.46,7.38
3.660000,0.2720,0.1782,0,2,72.46,7.38
3.662000,0.2868,0.1659,0,2,72.46,7.38
3.664000,0.2576,0.1532,0,2,72.46,7.38
3.666000,0.2651,0.1406,0,2,72.46,7.38
3.668000,0.2481,0.1285,0,2,72.46,7.38
3.670000,0.2575,0.1172,0,2,72.46,7.38
3.672000,0.2226,0.1066,0,2,72.46,7.38
3.674000,0.2095,0.0967,0,2,72.46,7.38
3.676000,0.2132,0.0873,0,2,72.46,7.38
3.678000,0.1927,0.0781,0,2,72.46,7.38
3.680000,0.1968,0.0688,0,2,72.46,7.38
3.682000,0.1781,0.0592,0,2,72.46,7.38
3.684000,0.1536,0.0491,0,2,72.46,7.38
3.686000,0.1730,0.0383,0,2,72.46,7.38
3.688000,0.1481,0.0268,0,2,72.46,7.38
3.690000,0.1395,0.0149,0,2,72.46,7.38
3.692000,0.1261,0.0029,0,2,72.46,7.38
3.694000,0.1101,-0.0089,0,2,72.46,7.38
3.696000,0.1026,-0.0199,0,2,72.46,7.38
3.698000,0.1025,-0.0297,0,2,72.46,7.38
3.700000,0.0632,-0.0380,0,2,72.46,7.38
3.702000,0.0854,-0.0448,0,2,72.46,7.38
3.704000,0.0761,-0.0500,0,2,72.46,7.38
3.706000,0.0562,-0.0540,0,2,72.46,7.38
3.708000,0.0282,-0.0573,0,2,72.46,7.38
3.710000,0.1032,-0.0606,0,2,72.46,7.38
3.712000,0.0532,-0.0643,0,2,72.46,7.38
3.714000,0.0827,-0.0690,0,2,72.46,7.38
3.716000,0.0466,-0.0746,0,2,72.46,7.38
3.718000,0.0084,-0.0811,0,2,72.46,7.38
3.720000,0.0304,-0.0879,0,2,72.46,7.38
3.722000,0.0541,-0.0946,0,2,72.46,7.38
3.724000,0.0160,-0.1006,0,2,72.46,7.38
3.726000,0.0261,-0.1054,0,2,72.46,7.38
3.728000,-0.0063,-0.1087,0,2,72.46,7.38
3.730000,-0.0041,-0.1106,0,2,72.46,7.38
3.732000,0.0229,-0.1113,0,2,72.46,7.38
3.734000,0.0068,-0.1113,0,2,72.46,7.38
3.736000,0.0408,-0.1114,0,2,72.46,7.38
3.738000,-0.0044,-0.1120,0,2,72.46,7.38
3.740000,0.0111,-0.1135,0,2,72.46,7.38
3.742000,0.0228,-0.1160,0,2,72.46,7.38
3.744000,-0.0060,-0.1193,0,2,72.46,7.38
3.746000,-0.0052,-0.1229,0,2,72.46,7.38
3.748000,-0.0172,-0.1263,0,2,72.46,7.38
3.750000,0.0176,-0.1288,0,2,72.46,7.38
3.752000,0.0021,-0.1300,0,2,72.46,7.38
3.754000,0.0110,-0.1296,0,2,72.46,7.38
3.756000,-0.0584,-0.1275,0,2,72.46,7.38
3.758000,0.0000,-0.1241,0,2,72.46,7.38
3.760000,0.0027,-0.1200,0,2,72.46,7.38
3.762000,0.0350,-0.1161,0,2,72.46,7.38
3.764000,0.0150,-0.1130,0,2,72.46,7.38
3.766000,0.0036,-0.1113,0,2,72.46,7.38
3.768000,0.0078,-0.1113,0,2,72.46,7.38
3.770000,0.0264,-0.1129,0,2,72.46,7.38
3.772000,0.0128,-0.1155,0,2,72.46,7.38
3.774000,0.0201,-0.1186,0,2,72.46,7.38
3.776000,0.0108,-0.1212,0,2,72.46,7.38
3.778000,-0.0242,-0.1229,0,2,72.46,7.38
3.780000,-0.0403,-0.1232,0,2,72.46,7.38
3.782000,0.0034,-0.1224,0,2,72.46,7.38
3.784000,0.0090,-0.1209,0,2,72.46,7.38
3.786000,0.0377,-0.1194,0,2,72.46,7.38
3.788000,-0.0001,-0.1186,0,2,72.46,7.38
3.790000,0.0374,-0.1189,0,2,72.46,7.38
3.792000,0.0162,-0.1202,0,2,72.46,7.38
3.794000,-0.0431,-0.1222,0,2,72.46,7.38
3.796000,0.0194,-0.1244,0,2,72.46,7.38
3.798000,-0.0123,-0.1261,0,2,72.46,7.38
3.800000,-0.0154,-0.1269,0,2,72.46,7.38
3.802000,0.0163,-0.1267,0,2,72.46,7.38
3.804000,-0.0204,-0.1254,0,2,72.46,7.38
3.806000,0.0249,-0.1234,0,2,72.46,7.38
3.808000,-0.0075,-0.1212,0,2,72.46,7.38
3.810000,0.0026,-0.1195,0,2,72.46,7.38
3.812000,0.0240,-0.1185,0,2,72.46,7.38
3.814000,0.0055,-0.1186,0,2,72.46,7.38
3.816000,0.0056,-0.1197,0,2,72.46,7.38
3.818000,0.0043,-0.1217,0,2,72.46,7.38
3.820000,0.0160,-0.1240,0,2,72.46,7.38
3.822000,-0.0105,-0.1261,0,2,72.46,7.38
3.824000,-0.0107,-0.1272,0,2,72.46,7.38
3.826000,0.0092,-0.1272,0,2,72.46,7.38
3.828000,-0.0091,-0.1257,0,2,72.46,7.38
3.830000,0.0007,-0.1231,0,2,72.46,7.38
3.832000,-0.0090,-0.1198,0,2,72.46,7.38
3.834000,0.0181,-0.1166,0,2,72.46,7.38
3.836000,-0.0088,-0.1143,0,2,72.46,7.38
3.838000,0.0475,-0.1132,0,2,72.46,7.38
3.840000,0.0505,-0.1137,0,2,72.46,7.38
3.842000,0.0124,-0.1153,0,2,72.46,7.38
3.844000,-0.0150,-0.1175,0,2,72.46,7.38
3.846000,0.0079,-0.1192,0,2,72.46,7.38
3.848000,-0.0375,-0.1199,0,2,72.46,7.38
3.850000,0.0213,-0.1191,0,2,72.46,7.38
3.852000,0.0117,-0.1170,0,2,72.46,7.38
3.854000,0.0151,-0.1141,0,2,72.46,7.38
3.856000,0.0160,-0.1112,0,2,72.46,7.38
3.858000,0.0272,-0.1090,0,2,72.46,7.38
3.860000,0.0452,-0.1081,0,2,72.46,7.38
3.862000,-0.0014,-0.1088,0,2,72.46,7.38
3.864000,0.0208,-0.1111,0,2,72.46,7.38
3.866000,0.0163,-0.1145,0,2,72.46,7.38
3.868000,0.0120,-0.1185,0,2,72.46,7.38
3.870000,-0.0413,-0.1226,0,2,72.46,7.38
3.872000,0.0194,-0.1262,0,2,72.46,7.38
3.874000,0.0028,-0.1290,0,2,72.46,7.38
3.876000,0.0252,-0.1310,0,2,72.46,7.38
3.878000,-0.0102,-0.1321,0,2,72.46,7.38
3.880000,-0.0247,-0.1323,0,2,72.46,7.38
3.882000,-0.0001,-0.1317,0,2,72.46,7.38
3.884000,-0.0358,-0.1307,0,2,72.46,7.38
3.886000,0.0249,-0.1294,0,2,72.46,7.38
3.888000,0.0135,-0.1282,0,2,72.46,7.38
3.890000,0.0060,-0.1270,0,2,72.46,7.38
3.892000,0.0139,-0.1262,0,2,72.46,7.38
3.894000,-0.0052,-0.1255,0,2,72.46,7.38
3.896000,-0.0325,-0.1249,0,2,72.46,7.38
3.898000,0.0124,-0.1245,0,2,72.46,7.38
3.900000,-0.0001,-0.1244,0,2,72.46,7.38
3.902000,-0.0152,-0.1247,0,2,72.46,7.38
3.904000,0.0261,-0.1256,0,2,72.46,7.38
3.906000,0.0273,-0.1270,0,2,72.46,7.38
3.908000,-0.0004,-0.1288,0,2,72.46,7.38
3.910000,0.0008,-0.1305,0,2,72.46,7.38
3.912000,-0.0189,-0.1315,0,2,72.46,7.38
3.914000,-0.0077,-0.1315,0,2,72.46,7.38
3.916000,-0.0145,-0.1303,0,2,72.46,7.38
3.918000,-0.0160,-0.1279,0,2,72.46,7.38
3.920000,0.0081,-0.1247,0,2,72.46,7.38
3.922000,0.0081,-0.1215,0,2,72.46,7.38
3.924000,0.0420,-0.1187,0,2,72.46,7.38
3.926000,0.0071,-0.1171,0,2,72.46,7.38
3.928000,0.0174,-0.1167,0,2,72.46,7.38
3.930000,-0.0102,-0.1176,0,2,72.46,7.38
3.932000,0.0183,-0.1194,0,2,72.46,7.38
3.934000,0.0281,-0.1218,0,2,72.46,7.38
3.936000,-0.0209,-0.1244,0,2,72.46,7.38
3.938000,-0.0153,-0.1268,0,2,72.46,7.38
3.940000,-0.0079,-0.1289,0,2,72.46,7.38
3.942000,0.0139,-0.1307,0,2,72.46,7.38
3.944000,-0.0038,-0.1325,0,2,72.46,7.38
3.946000,0.0174,-0.1343,0,2,72.46,7.38
3.948000,-0.0264,-0.1363,0,2,72.46,7.38
3.950000,-0.0263,-0.1385,0,2,72.46,7.38
3.952000,0.0108,-0.1407,0,2,72.46,7.38
3.954000,-0.0072,-0.1426,0,2,72.46,7.38
3.956000,-0.0093,-0.1437,0,2,72.46,7.38
3.958000,-0.0183,-0.1437,0,2,72.46,7.38
3.960000,-0.0371,-0.1423,0,2,72.46,7.38
3.962000,-0.0263,-0.1394,0,2,72.46,7.38
3.964000,0.0093,-0.1352,0,2,72.46,7.38
3.966000,0.0067,-0.1304,0,2,72.46,7.38
3.968000,-0.0309,-0.1256,0,2,72.46,7.38
3.970000,0.0290,-0.1217,0,2,72.46,7.38
3.972000,0.0310,-0.1193,0,2,72.46,7.38
3.974000,0.0186,-0.1187,0,2,72.46,7.38
3.976000,-0.0078,-0.1200,0,2,72.46,7.38
3.978000,0.0143,-0.1228,0,2,72.46,7.38
3.980000,-0.0290,-0.1265,0,2,72.46,7.38
3.982000,0.0049,-0.1304,0,2,72.46,7.38
3.984000,0.0150,-0.1338,0,2,72.46,7.38
3.986000,-0.0255,-0.1361,0,2,72.46,7.38
3.988000,-0.0031,-0.1371,0,2,72.46,7.38
3.990000,-0.0077,-0.1367,0,2,72.46,7.38
3.992000,-0.0119,-0.1352,0,2,72.46,7.38
3.994000,0.0042,-0.1329,0,2,72.46,7.38
3.996000,-0.0097,-0.1305,0,2,72.46,7.38
3.998000,-0.0111,-0.1286,0,2,72.46,7.38
4.000000,0.0163,-0.1276,0,2,72.46,7.38
4.002000,-0.0301,-0.1280,0,2,72.46,7.38
4.004000,0.0382,-0.1298,0,2,72.46,7.38
4.006000,-0.0108,-0.1329,0,2,72.46,7.38
4.008000,0.0193,-0.1367,0,2,72.46,7.38
4.010000,-0.0405,-0.1405,0,2,72.46,7.38
4.012000,-0.0097,-0.1437,0,2,72.46,7.38
4.014000,-0.0469,-0.1456,0,2,72.46,7.38
4.016000,-0.0161,-0.1459,0,2,72.46,7.38
4.018000,-0.0098,-0.1447,0,2,72.46,7.38
4.020000,-0.0125,-0.1423,0,2,72.46,7.38
4.022000,-0.0153,-0.1391,0,2,72.46,7.38
4.024000,0.0095,-0.1358,0,2,72.46,7.38
4.026000,0.0071,-0.1328,0,2,72.46,7.38
4.028000,-0.0297,-0.1303,0,2,72.46,7.38
4.030000,0.0063,-0.1285,0,2,72.46,7.38
4.032000,0.0053,-0.1274,0,2,72.46,7.38
4.034000,-0.0014,-0.1267,0,2,72.46,7.38
4.036000,0.0241,-0.1262,0,2,72.46,7.38
4.038000,-0.0310,-0.1257,0,2,72.46,7.38
4.040000,-0.0026,-0.1249,0,2,72.46,7.38
4.042000,0.0286,-0.1238,0,2,72.46,7.38
4.044000,-0.0146,-0.1225,0,2,72.46,7.38
4.046000,0.0027,-0.1213,0,2,72.46,7.38
4.048000,0.0212,-0.1204,0,2,72.46,7.38
4.050000,0.0147,-0.1202,0,2,72.46,7.38
4.052000,-0.0164,-0.1210,0,2,72.46,7.38
4.054000,0.0143,-0.1229,0,2,72.46,7.38
4.056000,0.0279,-0.1259,0,2,72.46,7.38
4.058000,-0.0343,-0.1297,0,2,72.46,7.38
4.060000,-0.0116,-0.1337,0,2,72.46,7.38
4.062000,0.0158,-0.1375,0,2,72.46,7.38
4.064000,-0.0082,-0.1403,0,2,72.46,7.38
4.066000,-0.0255,-0.1417,0,2,72.46,7.38
4.068000,-0.0350,-0.1412,0,2,72.46,7.38
4.070000,0.0028,-0.1388,0,2,72.46,7.38
4.072000,-0.0206,-0.1350,0,2,72.46,7.38
4.074000,0.0157,-0.1302,0,2,72.46,7.38
4.076000,-0.0085,-0.1254,0,2,72.46,7.38
4.078000,-0.0250,-0.1216,0,2,72.46,7.38
4.080000,0.0128,-0.1194,0,2,72.46,7.38
4.082000,0.0508,-0.1195,0,2,72.46,7.38
4.084000,0.0077,-0.1218,0,2,72.46,7.38
4.086000,0.0002,-0.1262,0,2,72.46,7.38
4.088000,-0.0400,-0.1317,0,2,72.46,7.38
4.090000,0.0053,-0.1373,0,2,72.46,7.38
4.092000,0.0091,-0.1421,0,2,72.46,7.38
4.094000,-0.0338,-0.1452,0,2,72.46,7.38
4.096000,-0.0582,-0.1460,0,2,72.46,7.38
4.098000,-0.0216,-0.1446,0,2,72.46,7.38
4.100000,-0.0194,-0.1414,0,2,72.46,7.38
4.102000,0.0133,-0.1370,0,2,72.46,7.38
4.104000,0.0214,-0.1322,0,2,72.46,7.38
4.106000,0.0123,-0.1278,0,2,72.46,7.38
4.108000,-0.0390,-0.1244,0,2,72.46,7.38
4.110000,-0.0093,-0.1224,0,2,72.46,7.38
4.112000,-0.0145,-0.1220,0,2,72.46,7.38
4.114000,0.0404,-0.1230,0,2,72.46,7.38
4.116000,0.0053,-0.1253,0,2,72.46,7.38
4.118000,0.0084,-0.1283,0,2,72.46,7.38
4.120000,-0.0115,-0.1313,0,2,72.46,7.38
4.122000,-0.0180,-0.1338,0,2,72.46,7.38
4.124000,-0.0217,-0.1350,0,2,72.46,7.38
4.126000,-0.0302,-0.1349,0,2,72.46,7.38
4.128000,-0.0271,-0.1335,0,2,72.46,7.38
4.130000,0.0435,-0.1310,0,2,72.46,7.38
4.132000,-0.0116,-0.1282,0,2,72.46,7.38
4.134000,-0.0017,-0.1253,0,2,72.46,7.38
4.136000,0.0057,-0.1228,0,2,72.46,7.38
4.138000,0.0236,-0.1207,0,2,72.46,7.38
4.140000,-0.0086,-0.1190,0,2,72.46,7.38
4.142000,-0.0103,-0.1173,0,2,72.46,7.38
4.144000,-0.0039,-0.1155,0,2,72.46,7.38
4.146000,0.0398,-0.1135,0,2,72.46,7.38
4.148000,-0.0157,-0.1114,0,2,72.46,7.38
4.150000,-0.0034,-0.1095,0,2,72.46,7.38
4.152000,0.0388,-0.1081,0,2,72.46,7.38
4.154000,0.0404,-0.1075,0,2,72.46,7.38
4.156000,0.0184,-0.1076,0,2,72.46,7.38
4.158000,0.0088,-0.1085,0,2,72.46,7.38
4.160000,0.0097,-0.1098,0,2,72.46,7.38
4.162000,-0.0078,-0.1111,0,2,72.46,7.38
4.164000,0.0033,-0.1121,0,2,72.46,7.38
4.166000,0.0047,-0.1127,0,2,72.46,7.38
4.168000,0.0287,-0.1128,0,2,72.46,7.38
4.170000,0.0137,-0.1125,0,2,72.46,7.38
4.172000,0.0164,-0.1121,0,2,72.46,7.38
4.174000,0.0213,-0.1117,0,2,72.46,7.38
4.176000,-0.0079,-0.1113,0,2,72.46,7.38
4.178000,-0.0221,-0.1111,0,2,72.46,7.38
4.180000,0.0393,-0.1111,0,2,72.46,7.38
4.182000,0.0133,-0.1113,0,2,72.46,7.38
4.184000,0.0099,-0.1116,0,2,72.46,7.38
4.186000,-0.0007,-0.1119,0,2,72.46,7.38
4.188000,0.0218,-0.1119,0,2,72.46,7.38
4.190000,0.0063,-0.1113,0,2,72.46,7.38
4.192000,0.0193,-0.1096,0,2,72.46,7.38
4.194000,0.0191,-0.1064,0,2,72.46,7.38
4.196000,-0.0083,-0.1015,0,2,72.46,7.38
4.198000,0.0413,-0.0948,0,2,72.46,7.38
4.200000,0.0332,-0.0863,0,2,72.46,7.38
4.202000,-0.0012,-0.0765,0,2,72.46,7.38
4.204000,0.0952,-0.0658,0,2,72.46,7.38
4.206000,0.0762,-0.0549,0,2,72.46,7.38
4.208000,0.0544,-0.0444,0,2,72.46,7.38
4.210000,0.0996,-0.0345,0,2,72.46,7.38
4.212000,0.0906,-0.0255,0,2,72.46,7.38
4.214000,0.1141,-0.0173,0,2,72.46,7.38
4.216000,0.1113,-0.0097,0,2,72.46,7.38
4.218000,0.0935,-0.0024,0,2,72.46,7.38
4.220000,0.1164,0.0049,0,2,72.46,7.38
4.222000,0.1097,0.0124,0,2,72.46,7.38
4.224000,0.1678,0.0202,0,2,72.46,7.38
4.226000,0.1653,0.0282,0,2,72.46,7.38
4.228000,0.1656,0.0365,0,2,72.46,7.38
4.230000,0.1459,0.0448,0,2,72.46,7.38
4.232000,0.1500,0.0531,0,2,72.46,7.38
4.234000,0.1647,0.0608,0,2,72.46,7.38
4.236000,0.2010,0.0678,0,2,72.46,7.38
4.238000,0.2082,0.0733,0,2,72.46,7.38
4.240000,0.1719,0.0770,0,2,72.46,7.38
4.242000,0.2213,0.0785,0,2,72.46,7.38
4.244000,0.1675,0.0776,0,2,72.46,7.38
4.246000,0.2220,0.0742,0,2,72.46,7.38
4.248000,0.1557,0.0685,0,2,72.46,7.38
4.250000,0.1781,0.0606,0,2,72.46,7.38
4.252000,0.1816,0.0509,0,2,72.46,7.38
4.254000,0.1441,0.0399,0,2,72.46,7.38
4.256000,0.1469,0.0280,0,2,72.46,7.38
4.258000,0.1263,0.0158,0,2,72.46,7.38
4.260000,0.1202,0.0037,0,2,72.46,7.38
4.262000,0.1295,-0.0076,0,2,72.46,7.38
4.264000,0.0721,-0.0178,0,2,72.46,7.38
4.266000,0.0877,-0.0267,0,2,72.46,7.38
4.268000,0.0919,-0.0341,0,2,72.46,7.38
4.270000,0.0838,-0.0402,0,2,72.46,7.38
4.272000,0.0368,-0.0455,0,2,72.46,7.38
4.274000,0.0512,-0.0505,0,2,72.46,7.38
4.276000,0.0537,-0.0558,0,2,72.46,7.38
4.278000,0.0849,-0.0618,0,2,72.46,7.38
4.280000,0.0623,-0.0687,0,2,72.46,7.38
4.282000,0.0264,-0.0761,0,2,72.46,7.38
4.284000,0.0296,-0.0835,0,2,72.46,7.38
4.286000,0.0232,-0.0902,0,2,72.46,7.38
4.288000,0.0331,-0.0951,0,2,72.46,7.38
4.290000,-0.0288,-0.0978,0,2,72.46,7.38
4.292000,0.0099,-0.0980,0,2,72.46,7.38
4.294000,0.0288,-0.0961,0,2,72.46,7.38
4.296000,0.0160,-0.0930,0,2,72.46,7.38
4.298000,0.0056,-0.0896,0,2,72.46,7.38
4.300000,0.0423,-0.0869,0,2,72.46,7.38
4.302000,0.0012,-0.0856,0,2,72.46,7.38
4.304000,0.0397,-0.0857,0,2,72.46,7.38
4.306000,0.0469,-0.0861,0,2,72.46,7.38
4.308000,0.0101,-0.0845,0,2,72.46,7.38
4.310000,0.0514,-0.0776,0,2,72.46,7.38
4.312000,0.0393,-0.0611,0,2,72.46,7.38
4.314000,0.1107,-0.0301,0,2,72.46,7.38
4.316000,0.1290,0.0201,0,2,72.46,7.38
4.318000,0.1944,0.0936,0,2,72.46,7.38
4.320000,0.2735,0.1927,0,2,72.46,7.38
4.322000,0.4131,0.3177,0,2,72.46,7.38
4.324000,0.5758,0.4659,0,2,72.46,7.38
4.326000,0.7304,0.6321,0,2,72.46,7.38
4.328000,0.8788,0.8082,0,2,72.46,7.38
4.330000,1.1352,0.9840,0,2,72.46,7.38
4.332000,1.2794,1.1484,0,2,72.46,7.38
4.334000,1.3571,1.2899,0,2,72.46,7.38
4.336000,1.5009,1.3980,0,2,72.46,7.38
4.338000,1.5927,1.4641,1,2,72.46,7.38
4.340000,1.5903,1.4826,1,2,72.46,7.38
4.342000,1.5694,1.4513,1,2,72.46,7.38
4.344000,1.4724,1.3718,0,2,72.46,7.38
4.346000,1.3846,1.2493,0,2,72.46,7.38
4.348000,1.2213,1.0924,0,2,72.46,7.38
4.350000,1.0064,0.9123,0,2,72.46,7.38
4.352000,0.8364,0.7211,0,2,72.46,7.38
4.354000,0.5707,0.5313,0,2,72.46,7.38
4.356000,0.4545,0.3542,0,2,72.46,7.38
4.358000,0.3026,0.1988,0,2,72.46,7.38
4.360000,0.1819,0.0711,0,2,72.46,7.38
4.362000,0.0614,-0.0258,0,2,72.46,7.38
4.364000,-0.0022,-0.0921,0,2,72.46,7.38
4.366000,-0.0191,-0.1306,0,2,72.46,7.38
4.368000,-0.0391,-0.1461,0,2,72.46,7.38
4.370000,-0.0398,-0.1444,0,2,72.46,7.38
4.372000,0.0001,-0.1315,0,2,72.46,7.38
4.374000,0.0054,-0.1130,0,2,72.46,7.38
4.376000,0.0126,-0.0931,0,2,72.46,7.38
4.378000,0.0041,-0.0749,0,2,72.46,7.38
4.380000,0.0329,-0.0601,0,2,72.46,7.38
4.382000,0.0610,-0.0489,0,2,72.46,7.38
4.384000,0.0806,-0.0408,0,2,72.46,7.38
4.386000,0.0240,-0.0349,0,2,72.46,7.38
4.388000,0.0855,-0.0301,0,2,72.46,7.38
4.390000,0.0553,-0.0253,0,2,72.46,7.38
4.392000,0.0697,-0.0198,0,2,72.46,7.38
4.394000,0.0955,-0.0134,0,2,72.46,7.38
4.396000,0.1009,-0.0061,0,2,72.46,7.38
4.398000,0.1088,0.0020,0,2,72.46,7.38
4.400000,0.1151,0.0106,0,2,72.46,7.38
4.402000,0.1031,0.0196,0,2,72.46,7.38
4.404000,0.1287,0.0289,0,2,72.46,7.38
4.406000,0.1494,0.0387,0,2,72.46,7.38
4.408000,0.1587,0.0491,0,2,72.46,7.38
4.410000,0.1251,0.0603,0,2,72.46,7.38
4.412000,0.1823,0.0721,0,2,72.46,7.38
4.414000,0.1563,0.0846,0,2,72.46,7.38
4.416000,0.2057,0.0973,0,2,72.46,7.38
4.418000,0.1849,0.1097,0,2,72.46,7.38
4.420000,0.2337,0.1214,0,2,72.46,7.38
4.422000,0.2435,0.1320,0,2,72.46,7.38
4.424000,0.2449,0.1414,0,2,72.46,7.38
4.426000,0.2470,0.1498,0,2,72.46,7.38
4.428000,0.2161,0.1575,0,2,72.46,7.38
4.430000,0.2737,0.1650,0,2,72.46,7.38
4.432000,0.2955,0.1728,0,2,72.46,7.38
4.434000,0.2473,0.1814,0,2,72.46,7.38
4.436000,0.2636,0.1907,0,2,72.46,7.38
4.438000,0.2892,0.2007,0,2,72.46,7.38
4.440000,0.3105,0.2109,0,2,72.46,7.38
4.442000,0.3214,0.2207,0,2,72.46,7.38
4.444000,0.3454,0.2296,0,2,72.46,7.38
4.446000,0.2908,0.2371,0,2,72.46,7.38
4.448000,0.3716,0.2430,0,2,72.46,7.38
4.450000,0.3062,0.2471,0,2,72.46,7.38
4.452000,0.3776,0.2499,0,2,72.46,7.38
4.454000,0.3133,0.2519,0,2,72.46,7.38
4.456000,0.3497,0.2535,0,2,72.46,7.38
4.458000,0.3443,0.2553,0,2,72.46,7.38
4.460000,0.3368,0.2576,0,2,72.46,7.38
4.462000,0.3532,0.2604,0,2,72.46,7.38
4.464000,0.3587,0.2635,0,2,72.46,7.38
4.466000,0.3289,0.2664,0,2,72.46,7.38
4.468000,0.3736,0.2684,0,2,72.46,7.38
4.470000,0.3365,0.2687,0,2,72.46,7.38
4.472000,0.3711,0.2669,0,2,72.46,7.38
4.474000,0.3762,0.2625,0,2,72.46,7.38
4.476000,0.3418,0.2560,0,2,72.46,7.38
4.478000,0.3267,0.2476,0,2,72.46,7.38
4.480000,0.3047,0.2383,0,2,72.46,7.38
4.482000,0.3460,0.2288,0,2,72.46,7.38
4.484000,0.2701,0.2197,0,2,72.46,7.38
4.486000,0.2852,0.2114,0,2,72.46,7.38
4.488000,0.2981,0.2037,0,2,72.46,7.38
4.490000,0.2697,0.1960,0,2,72.46,7.38
4.492000,0.2808,0.1879,0,2,72.46,7.38
4.494000,0.2778,0.1786,0,2,72.46,7.38
4.496000,0.2478,0.1676,0,2,72.46,7.38
4.498000,0.2466,0.1549,0,2,72.46,7.38
4.500000,0.2419,0.1408,0,2,72.46,7.38
4.502000,0.1751,0.1260,0,2,72.46,7.38
4.504000,0.2011,0.1110,0,2,72.46,7.38
4.506000,0.1580,0.0967,0,2,72.46,7.38
4.508000,0.1863,0.0837,0,2,72.46,7.38
4.510000,0.1579,0.0721,0,2,72.46,7.38
4.512000,0.1127,0.0619,0,2,72.46,7.38
4.514000,0.1382,0.0530,0,2,72.46,7.38
4.516000,0.1435,0.0449,0,2,72.46,7.38
4.518000,0.0896,0.0373,0,2,72.46,7.38
4.520000,0.1289,0.0296,0,2,72.46,7.38
4.522000,0.1021,0.0219,0,2,72.46,7.38
4.524000,0.1348,0.0142,0,2,72.46,7.38
4.526000,0.0704,0.0067,0,2,72.46,7.38
4.528000,0.0459,-0.0003,0,2,72.46,7.38
4.530000,0.0417,-0.0064,0,2,72.46,7.38
4.532000,0.0866,-0.0116,0,2,72.46,7.38
4.534000,0.0727,-0.0160,0,2,72.46,7.38
4.536000,0.0615,-0.0199,0,2,72.46,7.38
4.538000,0.0388,-0.0236,0,2,72.46,7.38
4.540000,0.0612,-0.0273,0,2,72.46,7.38
4.542000,0.0479,-0.0312,0,2,72.46,7.38
4.544000,0.0145,-0.0353,0,2,72.46,7.38
4.546000,0.0625,-0.0395,0,2,72.46,7.38
4.548000,0.0455,-0.0435,0,2,72.46,7.38
4.550000,0.0201,-0.0472,0,2,72.46,7.38
4.552000,-0.0125,-0.0503,0,2,72.46,7.38
4.554000,0.0076,-0.0526,0,2,72.46,7.38
4.556000,0.0569,-0.0543,0,2,72.46,7.38
4.558000,0.0363,-0.0554,0,2,72.46,7.38
4.560000,-0.0142,-0.0562,0,2,72.46,7.38
4.562000,-0.0196,-0.0570,0,2,72.46,7.38
4.564000,0.0411,-0.0580,0,2,72.46,7.38
4.566000,0.0184,-0.0594,0,2,72.46,7.38
4.568000,0.0639,-0.0611,0,2,72.46,7.38
4.570000,-0.0150,-0.0630,0,2,72.46,7.38
4.572000,-0.0274,-0.0646,0,2,72.46,7.38
4.574000,-0.0113,-0.0658,0,2,72.46,7.38
4.576000,0.0075,-0.0661,0,2,72.46,7.38
4.578000,0.0066,-0.0657,0,2,72.46,7.38
4.580000,0.0257,-0.0646,0,2,72.46,7.38
4.582000,-0.0010,-0.0631,0,2,72.46,7.38
4.584000,0.0148,-0.0614,0,2,72.46,7.38
4.586000,0.0073,-0.0597,0,2,72.46,7.38
4.588000,-0.0321,-0.0583,0,2,72.46,7.38
4.590000,0.0582,-0.0575,0,2,72.46,7.38
4.592000,-0.0008,-0.0572,0,2,72.46,7.38
4.594000,0.0160,-0.0576,0,2,72.46,7.38
4.596000,-0.0332,-0.0585,0,2,72.46,7.38
4.598000,0.0272,-0.0599,0,2,72.46,7.38
4.600000,0.0235,-0.0614,0,2,72.46,7.38
4.602000,-0.0138,-0.0630,0,2,72.46,7.38
4.604000,0.0063,-0.0643,0,2,72.46,7.38
4.606000,0.0068,-0.0653,0,2,72.46,7.38
4.608000,-0.0066,-0.0659,0,2,72.46,7.38
4.610000,-0.0323,-0.0661,0,2,72.46,7.38
4.612000,-0.0123,-0.0662,0,2,72.46,7.38
4.614000,0.0233,-0.0664,0,2,72.46,7.38
4.616000,0.0247,-0.0667,0,2,72.46,7.38
4.618000,-0.0037,-0.0671,0,2,72.46,7.38
4.620000,-0.0338,-0.0675,0,2,72.46,7.38
4.622000,-0.0067,-0.0677,0,2,72.46,7.38
4.624000,-0.0222,-0.0673,0,2,72.46,7.38
4.626000,0.0153,-0.0663,0,2,72.46,7.38
4.628000,-0.0031,-0.0648,0,2,72.46,7.38
4.630000,0.0097,-0.0629,0,2,72.46,7.38
4.632000,-0.0232,-0.0611,0,2,72.46,7.38
4.634000,-0.0220,-0.0595,0,2,72.46,7.38
4.636000,0.0238,-0.0586,0,2,72.46,7.38
4.638000,0.0134,-0.0584,0,2,72.46,7.38
4.640000,0.0023,-0.0589,0,2,72.46,7.38
4.642000,0.0011,-0.0600,0,2,72.46,7.38
4.644000,-0.0138,-0.0614,0,2,72.46,7.38
4.646000,-0.0127,-0.0628,0,2,72.46,7.38
4.648000,-0.0099,-0.0641,0,2,72.46,7.38
4.650000,-0.0163,-0.0650,0,2,72.46,7.38
4.652000,0.0074,-0.0658,0,2,72.46,7.38
4.654000,-0.0117,-0.0664,0,2,72.46,7.38
4.656000,-0.0261,-0.0669,0,2,72.46,7.38
4.658000,0.0111,-0.0674,0,2,72.46,7.38
4.660000,-0.0138,-0.0677,0,2,72.46,7.38
4.662000,-0.0051,-0.0677,0,2,72.46,7.38
4.664000,-0.0335,-0.0674,0,2,72.46,7.38
4.666000,-0.0374,-0.0665,0,2,72.46,7.38
4.668000,0.0289,-0.0652,0,2,72.46,7.38
4.670000,-0.0320,-0.0636,0,2,72.46,7.38
4.672000,0.0136,-0.0618,0,2,72.46,7.38
4.674000,-0.0196,-0.0600,0,2,72.46,7.38
4.676000,-0.0053,-0.0582,0,2,72.46,7.38
4.678000,0.0003,-0.0565,0,2,72.46,7.38
4.680000,-0.0149,-0.0547,0,2,72.46,7.38
4.682000,0.0004,-0.0527,0,2,72.46,7.38
4.684000,0.0181,-0.0506,0,2,72.46,7.38
4.686000,-0.0183,-0.0482,0,2,72.46,7.38
4.688000,-0.0192,-0.0457,0,2,72.46,7.38
4.690000,0.0415,-0.0432,0,2,72.46,7.38
4.692000,0.0571,-0.0408,0,2,72.46,7.38
4.694000,-0.0221,-0.0386,0,2,72.46,7.38
4.696000,-0.0098,-0.0367,0,2,72.46,7.38
4.698000,-0.0119,-0.0351,0,2,72.46,7.38
4.700000,0.0173,-0.0343,0,2,72.46,7.38
4.702000,0.0144,-0.0344,0,2,72.46,7.38
4.704000,0.0388,-0.0357,0,2,72.46,7.38
4.706000,0.0244,-0.0383,0,2,72.46,7.38
4.708000,0.0290,-0.0420,0,2,72.46,7.38
4.710000,-0.0077,-0.0463,0,2,72.46,7.38
4.712000,-0.0504,-0.0506,0,2,72.46,7.38
4.714000,-0.0082,-0.0541,0,2,72.46,7.38
4.716000,-0.0092,-0.0563,0,2,72.46,7.38
4.718000,0.0033,-0.0569,0,2,72.46,7.38
4.720000,-0.0130,-0.0559,0,2,72.46,7.38
4.722000,-0.0048,-0.0533,0,2,72.46,7.38
4.724000,-0.0093,-0.0494,0,2,72.46,7.38
4.726000,-0.0061,-0.0449,0,2,72.46,7.38
4.728000,0.0246,-0.0402,0,2,72.46,7.38
4.730000,0.0086,-0.0359,0,2,72.46,7.38
4.732000,0.0000,-0.0324,0,2,72.46,7.38
4.734000,0.0104,-0.0302,0,2,72.46,7.38
4.736000,-0.0102,-0.0295,0,2,72.46,7.38
4.738000,0.0417,-0.0302,0,2,72.46,7.38
4.740000,0.0348,-0.0323,0,2,72.46,7.38
4.742000,-0.0492,-0.0352,0,2,72.46,7.38
4.744000,0.0371,-0.0387,0,2,72.46,7.38
4.746000,0.0038,-0.0420,0,2,72.46,7.38
4.748000,-0.0047,-0.0448,0,2,72.46,7.38
4.750000,-0.0135,-0.0468,0,2,72.46,7.38
4.752000,-0.0038,-0.0476,0,2,72.46,7.38
4.754000,-0.0289,-0.0473,0,2,72.46,7.38
4.756000,0.0138,-0.0459,0,2,72.46,7.38
4.758000,0.0018,-0.0438,0,2,72.46,7.38
4.760000,-0.0217,-0.0412,0,2,72.46,7.38
4.762000,0.0088,-0.0385,0,2,72.46,7.38
4.764000,-0.0031,-0.0359,0,2,72.46,7.38
4.766000,0.0074,-0.0338,0,2,72.46,7.38
4.768000,0.0313,-0.0322,0,2,72.46,7.38
4.770000,0.0211,-0.0311,0,2,72.46,7.38
4.772000,0.0096,-0.0303,0,2,72.46,7.38
4.774000,-0.0404,-0.0296,0,2,72.46,7.38
4.776000,0.0061,-0.0287,0,2,72.46,7.38
4.778000,0.0192,-0.0277,0,2,72.46,7.38
4.780000,0.0094,-0.0265,0,2,72.46,7.38
4.782000,0.0246,-0.0253,0,2,72.46,7.38
4.784000,-0.0078,-0.0243,0,2,72.46,7.38
4.786000,0.0489,-0.0235,0,2,72.46,7.38
4.788000,0.0150,-0.0231,0,2,72.46,7.38
4.790000,0.0132,-0.0229,0,2,72.46,7.38
4.792000,0.0075,-0.0229,0,2,72.46,7.38
4.794000,-0.0036,-0.0229,0,2,72.46,7.38
4.796000,-0.0082,-0.0229,0,2,72.46,7.38
4.798000,0.0224,-0.0232,0,2,72.46,7.38
4.800000,-0.0001,-0.0237,0,2,72.46,7.38
4.802000,0.0265,-0.0249,0,2,72.46,7.38
4.804000,0.0248,-0.0267,0,2,72.46,7.38
4.806000,0.0169,-0.0292,0,2,72.46,7.38
4.808000,0.0069,-0.0321,0,2,72.46,7.38
4.810000,-0.0388,-0.0350,0,2,72.46,7.38
4.812000,0.0014,-0.0376,0,2,72.46,7.38
4.814000,0.0010,-0.0394,0,2,72.46,7.38
4.816000,0.0045,-0.0402,0,2,72.46,7.38
4.818000,-0.0262,-0.0398,0,2,72.46,7.38
4.820000,-0.0193,-0.0384,0,2,72.46,7.38
4.822000,0.0047,-0.0362,0,2,72.46,7.38
4.824000,-0.0075,-0.0337,0,2,72.46,7.38
4.826000,0.0148,-0.0312,0,2,72.46,7.38
4.828000,0.0370,-0.0293,0,2,72.46,7.38
4.830000,0.0009,-0.0282,0,2,72.46,7.38
4.832000,-0.0278,-0.0280,0,2,72.46,7.38
4.834000,-0.0026,-0.0287,0,2,72.46,7.38
4.836000,-0.0107,-0.0301,0,2,72.46,7.38
4.838000,0.0093,-0.0320,0,2,72.46,7.38
4.840000,0.0184,-0.0341,0,2,72.46,7.38
4.842000,-0.0173,-0.0361,0,2,72.46,7.38
4.844000,0.0132,-0.0377,0,2,72.46,7.38
4.846000,-0.0317,-0.0386,0,2,72.46,7.38
4.848000,0.0086,-0.0389,0,2,72.46,7.38
4.850000,-0.0331,-0.0385,0,2,72.46,7.38
4.852000,-0.0090,-0.0379,0,2,72.46,7.38
4.854000,-0.0183,-0.0373,0,2,72.46,7.38
4.856000,0.0264,-0.0370,0,2,72.46,7.38
4.858000,-0.0043,-0.0372,0,2,72.46,7.38
4.860000,-0.0028,-0.0378,0,2,72.46,7.38
4.862000,-0.0303,-0.0385,0,2,72.46,7.38
4.864000,-0.0036,-0.0391,0,2,72.46,7.38
4.866000,-0.0083,-0.0391,0,2,72.46,7.38
4.868000,-0.0305,-0.0387,0,2,72.46,7.38
4.870000,-0.0112,-0.0377,0,2,72.46,7.38
4.872000,0.0235,-0.0365,0,2,72.46,7.38
4.874000,-0.0083,-0.0352,0,2,72.46,7.38
4.876000,-0.0043,-0.0340,0,2,72.46,7.38
4.878000,-0.0330,-0.0329,0,2,72.46,7.38
4.880000,0.0052,-0.0318,0,2,72.46,7.38
4.882000,-0.0106,-0.0306,0,2,72.46,7.38
4.884000,0.0551,-0.0290,0,2,72.46,7.38
4.886000,-0.0174,-0.0270,0,2,72.46,7.38
4.888000,-0.0183,-0.0245,0,2,72.46,7.38
4.890000,-0.0048,-0.0218,0,2,72.46,7.38
4.892000,-0.0040,-0.0191,0,2,72.46,7.38
4.894000,0.0383,-0.0171,0,2,72.46,7.38
4.896000,0.0108,-0.0161,0,2,72.46,7.38
4.898000,0.0047,-0.0164,0,2,72.46,7.38
4.900000,0.0392,-0.0181,0,2,72.46,7.38
4.902000,-0.0115,-0.0209,0,2,72.46,7.38
4.904000,-0.0010,-0.0243,0,2,72.46,7.38
4.906000,0.0124,-0.0280,0,2,72.46,7.38
4.908000,-0.0326,-0.0315,0,2,72.46,7.38
4.910000,0.0047,-0.0344,0,2,72.46,7.38
4.912000,0.0042,-0.0366,0,2,72.46,7.38
4.914000,-0.0035,-0.0380,0,2,72.46,7.38
4.916000,-0.0459,-0.0386,0,2,72.46,7.38
4.918000,-0.0025,-0.0382,0,2,72.46,7.38
4.920000,0.0025,-0.0368,0,2,72.46,7.38
4.922000,0.0162,-0.0343,0,2,72.46,7.38
4.924000,-0.0103,-0.0307,0,2,72.46,7.38
4.926000,-0.0159,-0.0261,0,2,72.46,7.38
4.928000,-0.0139,-0.0209,0,2,72.46,7.38
4.930000,0.0366,-0.0155,0,2,72.46,7.38
4.932000,0.0156,-0.0105,0,2,72.46,7.38
4.934000,0.0181,-0.0068,0,2,72.46,7.38
4.936000,0.0413,-0.0048,0,2,72.46,7.38
4.938000,0.0169,-0.0049,0,2,72.46,7.38
4.940000,-0.0235,-0.0070,0,2,72.46,7.38
4.942000,0.0362,-0.0108,0,2,72.46,7.38
4.944000,0.0326,-0.0158,0,2,72.46,7.38
4.946000,0.0249,-0.0213,0,2,72.46,7.38
4.948000,0.0083,-0.0264,0,2,72.46,7.38
4.950000,-0.0202,-0.0302,0,2,72.46,7.38
4.952000,-0.0205,-0.0321,0,2,72.46,7.38
4.954000,0.0307,-0.0315,0,2,72.46,7.38
4.956000,-0.0437,-0.0287,0,2,72.46,7.38
4.958000,-0.0144,-0.0239,0,2,72.46,7.38
4.960000,0.0107,-0.0180,0,2,72.46,7.38
4.962000,-0.0016,-0.1011,0,3,73.46,7.08
4.964000,0.0063,-0.0975,0,3,73.46,7.08
4.966000,0.0497,-0.0953,0,3,73.46,7.08
4.968000,0.0188,-0.0949,0,3,73.46,7.08
4.970000,0.0001,-0.0962,0,3,73.46,7.08
4.972000,0.0054,-0.0990,0,3,73.46,7.08
4.974000,0.0131,-0.1025,0,3,73.46,7.08
4.976000,-0.0364,-0.1060,0,3,73.46,7.08
4.978000,-0.0119,-0.1089,0,3,73.46,7.08
4.980000,0.0164,-0.1108,0,3,73.46,7.08
4.982000,-0.0124,-0.1116,0,3,73.46,7.08
4.984000,0.0106,-0.1113,0,3,73.46,7.08
4.986000,-0.0129,-0.1102,0,3,73.46,7.08
4.988000,0.0080,-0.1086,0,3,73.46,7.08
4.990000,-0.0134,-0.1068,0,3,73.46,7.08
4.992000,-0.0020,-0.1052,0,3,73.46,7.08
4.994000,0.0083,-0.1040,0,3,73.46,7.08
4.996000,0.0128,-0.1029,0,3,73.46,7.08
4.998000,0.0058,-0.1020,0,3,73.46,7.08
5.000000,0.0019,-0.1008,0,3,73.46,7.08
5.002000,0.0300,-0.0989,0,3,73.46,7.08
5.004000,-0.0351,-0.0960,0,3,73.46,7.08
5.006000,0.0244,-0.0921,0,3,73.46,7.08
5.008000,-0.0080,-0.0873,0,3,73.46,7.08
5.010000,0.0447,-0.0821,0,3,73.46,7.08
5.012000,0.0475,-0.0769,0,3,73.46,7.08
5.014000,0.0486,-0.0722,0,3,73.46,7.08
5.016000,0.0316,-0.0683,0,3,73.46,7.08
5.018000,0.0201,-0.0651,0,3,73.46,7.08
5.020000,0.0510,-0.0624,0,3,73.46,7.08
5.022000,0.0265,-0.0595,0,3,73.46,7.08
5.024000,0.0851,-0.0561,0,3,73.46,7.08
5.026000,0.0544,-0.0516,0,3,73.46,7.08
5.028000,0.0201,-0.0454,0,3,73.46,7.08
5.030000,0.1030,-0.0375,0,3,73.46,7.08
5.032000,0.0827,-0.0276,0,3,73.46,7.08
5.034000,0.0817,-0.0162,0,3,73.46,7.08
5.036000,0.0831,-0.0035,0,3,73.46,7.08
5.038000,0.1008,0.0098,0,3,73.46,7.08
5.040000,0.1631,0.0228,0,3,73.46,7.08
5.042000,0.1421,0.0350,0,3,73.46,7.08
5.044000,0.1516,0.0456,0,3,73.46,7.08
5.046000,0.1459,0.0544,0,3,73.46,7.08
5.048000,0.1617,0.0611,0,3,73.46,7.08
5.050000,0.1916,0.0658,0,3,73.46,7.08
5.052000,0.1936,0.0689,0,3,73.46,7.08
5.054000,0.1756,0.0707,0,3,73.46,7.08
5.056000,0.1575,0.0717,0,3,73.46,7.08
5.058000,0.1736,0.0722,0,3,73.46,7.08
5.060000,0.1447,0.0725,0,3,73.46,7.08
5.062000,0.1865,0.0723,0,3,73.46,7.08
5.064000,0.2007,0.0715,0,3,73.46,7.08
5.066000,0.1776,0.0698,0,3,73.46,7.08
5.068000,0.2012,0.0669,0,3,73.46,7.08
5.070000,0.1547,0.0627,0,3,73.46,7.08
5.072000,0.1720,0.0574,0,3,73.46,7.08
5.074000,0.1373,0.0511,0,3,73.46,7.08
5.076000,0.1149,0.0442,0,3,73.46,7.08
5.078000,0.1740,0.0368,0,3,73.46,7.08
5.080000,0.1317,0.0290,0,3,73.46,7.08
5.082000,0.1311,0.0210,0,3,73.46,7.08
5.084000,0.1193,0.0129,0,3,73.46,7.08
5.086000,0.1411,0.0049,0,3,73.46,7.08
5.088000,0.0810,-0.0029,0,3,73.46,7.08
5.090000,0.0872,-0.0105,0,3,73.46,7.08
5.092000,0.0791,-0.0177,0,3,73.46,7.08
5.094000,0.0651,-0.0247,0,3,73.46,7.08
5.096000,0.0920,-0.0317,0,3,73.46,7.08
5.098000,0.0907,-0.0388,0,3,73.46,7.08
5.100000,0.0571,-0.0460,0,3,73.46,7.08
5.102000,0.0361,-0.0531,0,3,73.46,7.08
5.104000,0.0666,-0.0598,0,3,73.46,7.08
5.106000,0.0196,-0.0656,0,3,73.46,7.08
5.108000,0.0519,-0.0702,0,3,73.46,7.08
5.110000,0.0146,-0.0734,0,3,73.46,7.08
5.112000,0.0577,-0.0754,0,3,73.46,7.08
5.114000,0.0093,-0.0765,0,3,73.46,7.08
5.116000,0.0127,-0.0775,0,3,73.46,7.08
5.118000,0.0186,-0.0790,0,3,73.46,7.08
5.120000,0.0318,-0.0818,0,3,73.46,7.08
5.122000,0.0243,-0.0862,0,3,73.46,7.08
5.124000,0.0408,-0.0919,0,3,73.46,7.08
5.126000,-0.0250,-0.0978,0,3,73.46,7.08
5.128000,0.0277,-0.1017,0,3,73.46,7.08
5.130000,0.0136,-0.1006,0,3,73.46,7.08
5.132000,0.0002,-0.0907,0,3,73.46,7.08
5.134000,0.0604,-0.0679,0,3,73.46,7.08
5.136000,0.0840,-0.0278,0,3,73.46,7.08
5.138000,0.1159,0.0332,0,3,73.46,7.08
5.140000,0.2250,0.1180,0,3,73.46,7.08
5.142000,0.3486,0.2275,0,3,73.46,7.08
5.144000,0.4416,0.3606,0,3,73.46,7.08
5.146000,0.6297,0.5140,0,3,73.46,7.08
5.148000,0.7660,0.6819,0,3,73.46,7.08
5.150000,0.9426,0.8560,0,3,73.46,7.08
5.152000,1.1405,1.0267,0,3,73.46,7.08
5.154000,1.2966,1.1832,0,3,73.46,7.08
5.156000,1.4305,1.3147,0,3,73.46,7.08
5.158000,1.5237,1.4117,0,3,73.46,7.08
5.160000,1.5715,1.4665,1,3,73.46,7.08
5.162000,1.5619,1.4742,1,3,73.46,7.08
5.164000,1.5672,1.4333,1,3,73.46,7.08
5.166000,1.4367,1.3459,0,3,73.46,7.08
5.168000,1.3571,1.2176,0,3,73.46,7.08
5.170000,1.1948,1.0572,0,3,73.46,7.08
5.172000,0.9676,0.8757,0,3,73.46,7.08
5.174000,0.7771,0.6853,0,3,73.46,7.08
5.176000,0.5970,0.4982,0,3,73.46,7.08
5.178000,0.4357,0.3256,0,3,73.46,7.08
5.180000,0.2578,0.1761,0,3,73.46,7.08
5.182000,0.1234,0.0557,0,3,73.46,7.08
5.184000,0.0401,-0.0335,0,3,73.46,7.08
5.186000,0.0250,-0.0922,0,3,73.46,7.08
5.188000,0.0029,-0.1239,0,3,73.46,7.08
5.190000,0.0165,-0.1340,0,3,73.46,7.08
5.192000,-0.0018,-0.1285,0,3,73.46,7.08
5.194000,-0.0141,-0.1137,0,3,73.46,7.08
5.196000,-0.0136,-0.0947,0,3,73.46,7.08
5.198000,0.0517,-0.0758,0,3,73.46,7.08
5.200000,0.0153,-0.0597,0,3,73.46,7.08
5.202000,0.0667,-0.0477,0,3,73.46,7.08
5.204000,0.0771,-0.0402,0,3,73.46,7.08
5.206000,0.0881,-0.0362,0,3,73.46,7.08
5.208000,0.0606,-0.0344,0,3,73.46,7.08
5.210000,0.0436,-0.0332,0,3,73.46,7.08
5.212000,0.0883,-0.0312,0,3,73.46,7.08
5.214000,0.0551,-0.0271,0,3,73.46,7.08
5.216000,0.0973,-0.0206,0,3,73.46,7.08
5.218000,0.1022,-0.0117,0,3,73.46,7.08
5.220000,0.0875,-0.0009,0,3,73.46,7.08
5.222000,0.1187,0.0111,0,3,73.46,7.08
5.224000,0.1675,0.0235,0,3,73.46,7.08
5.226000,0.1255,0.0355,0,3,73.46,7.08
5.228000,0.1652,0.0466,0,3,73.46,7.08
5.230000,0.1272,0.0564,0,3,73.46,7.08
5.232000,0.1623,0.0650,0,3,73.46,7.08
5.234000,0.2030,0.0724,0,3,73.46,7.08
5.236000,0.1858,0.0789,0,3,73.46,7.08
5.238000,0.2093,0.0850,0,3,73.46,7.08
5.240000,0.1926,0.0914,0,3,73.46,7.08
5.242000,0.2099,0.0987,0,3,73.46,7.08
5.244000,0.1968,0.1074,0,3,73.46,7.08
5.246000,0.1685,0.1176,0,3,73.46,7.08
5.248000,0.2528,0.1292,0,3,73.46,7.08
5.250000,0.2743,0.1417,0,3,73.46,7.08
5.252000,0.2730,0.1543,0,3,73.46,7.08
5.254000,0.2830,0.1663,0,3,73.46,7.08
5.256000,0.2663,0.1773,0,3,73.46,7.08
5.258000,0.2859,0.1869,0,3,73.46,7.08
5.260000,0.3016,0.1951,0,3,73.46,7.08
5.262000,0.3125,0.2023,0,3,73.46,7.08
5.264000,0.3191,0.2087,0,3,73.46,7.08
5.266000,0.3218,0.2147,0,3,73.46,7.08
5.268000,0.3137,0.2208,0,3,73.46,7.08
5.270000,0.3169,0.2270,0,3,73.46,7.08
5.272000,0.3425,0.2332,0,3,73.46,7.08
5.274000,0.3771,0.2392,0,3,73.46,7.08
5.276000,0.3498,0.2445,0,3,73.46,7.08
5.278000,0.3032,0.2487,0,3,73.46,7.08
5.280000,0.4035,0.2513,0,3,73.46,7.08
5.282000,0.3422,0.2520,0,3,73.46,7.08
5.284000,0.3450,0.2506,0,3,73.46,7.08
5.286000,0.3656,0.2473,0,3,73.46,7.08
5.288000,0.3745,0.2424,0,3,73.46,7.08
5.290000,0.3399,0.2363,0,3,73.46,7.08
5.292000,0.3059,0.2294,0,3,73.46,7.08
5.294000,0.3162,0.2221,0,3,73.46,7.08
5.296000,0.3102,0.2147,0,3,73.46,7.08
5.298000,0.3342,0.2072,0,3,73.46,7.08
5.300000,0.3202,0.1997,0,3,73.46,7.08
5.302000,0.3160,0.1920,0,3,73.46,7.08
5.304000,0.2592,0.1843,0,3,73.46,7.08
5.306000,0.2781,0.1765,0,3,73.46,7.08
5.308000,0.2796,0.1688,0,3,73.46,7.08
5.310000,0.2547,0.1610,0,3,73.46,7.08
5.312000,0.2482,0.1530,0,3,73.46,7.08
5.314000,0.2907,0.1447,0,3,73.46,7.08
5.316000,0.2390,0.1360,0,3,73.46,7.08
5.318000,0.2321,0.1267,0,3,73.46,7.08
5.320000,0.1995,0.1168,0,3,73.46,7.08
5.322000,0.2094,0.1064,0,3,73.46,7.08
5.324000,0.1987,0.0957,0,3,73.46,7.08
5.326000,0.1837,0.0847,0,3,73.46,7.08
5.328000,0.2090,0.0736,0,3,73.46,7.08
5.330000,0.1944,0.0626,0,3,73.46,7.08
5.332000,0.1125,0.0519,0,3,73.46,7.08
5.334000,0.1389,0.0417,0,3,73.46,7.08
5.336000,0.1625,0.0320,0,3,73.46,7.08
5.338000,0.1155,0.0228,0,3,73.46,7.08
5.340000,0.1170,0.0140,0,3,73.46,7.08
5.342000,0.1245,0.0054,0,3,73.46,7.08
5.344000,0.0838,-0.0032,0,3,73.46,7.08
5.346000,0.0795,-0.0118,0,3,73.46,7.08
5.348000,0.1185,-0.0206,0,3,73.46,7.08
5.350000,0.0847,-0.0295,0,3,73.46,7.08
5.352000,0.0568,-0.0384,0,3,73.46,7.08
5.354000,0.0467,-0.0470,0,3,73.46,7.08
5.356000,0.0521,-0.0549,0,3,73.46,7.08
5.358000,0.0439,-0.0620,0,3,73.46,7.08
5.360000,0.0441,-0.0680,0,3,73.46,7.08
5.362000,0.0208,-0.0727,0,3,73.46,7.08
5.364000,0.0435,-0.0762,0,3,73.46,7.08
5.366000,0.0052,-0.0784,0,3,73.46,7.08
5.368000,0.0514,-0.0797,0,3,73.46,7.08
5.370000,0.0118,-0.0803,0,3,73.46,7.08
5.372000,0.0168,-0.0807,0,3,73.46,7.08
5.374000,0.0215,-0.0813,0,3,73.46,7.08
5.376000,0.0335,-0.0828,0,3,73.46,7.08
5.378000,0.0245,-0.0853,0,3,73.46,7.08
5.380000,0.0315,-0.0889,0,3,73.46,7.08
5.382000,-0.0231,-0.0935,0,3,73.46,7.08
5.384000,0.0486,-0.0987,0,3,73.46,7.08
5.386000,-0.0218,-0.1037,0,3,73.46,7.08
5.388000,-0.0200,-0.1080,0,3,73.46,7.08
5.390000,0.0015,-0.1111,0,3,73.46,7.08
5.392000,-0.0228,-0.1125,0,3,73.46,7.08
5.394000,0.0260,-0.1122,0,3,73.46,7.08
5.396000,0.0285,-0.1101,0,3,73.46,7.08
5.398000,-0.0326,-0.1064,0,3,73.46,7.08
5.400000,-0.0311,-0.1015,0,3,73.46,7.08
5.402000,0.0406,-0.0961,0,3,73.46,7.08
5.404000,-0.0234,-0.0909,0,3,73.46,7.08
5.406000,0.0165,-0.0868,0,3,73.46,7.08
5.408000,0.0577,-0.0845,0,3,73.46,7.08
5.410000,0.0268,-0.0849,0,3,73.46,7.08
5.412000,0.0203,-0.0880,0,3,73.46,7.08
5.414000,-0.0170,-0.0936,0,3,73.46,7.08
5.416000,0.0253,-0.1012,0,3,73.46,7.08
5.418000,0.0176,-0.1097,0,3,73.46,7.08
5.420000,-0.0257,-0.1179,0,3,73.46,7.08
5.422000,-0.0298,-0.1247,0,3,73.46,7.08
5.424000,-0.0501,-0.1291,0,3,73.46,7.08
5.426000,-0.0248,-0.1305,0,3,73.46,7.08
5.428000,-0.0131,-0.1290,0,3,73.46,7.08
5.430000,-0.0197,-0.1250,0,3,73.46,7.08
5.432000,-0.0110,-0.1193,0,3,73.46,7.08
5.434000,0.0063,-0.1128,0,3,73.46,7.08
5.436000,-0.0072,-0.1066,0,3,73.46,7.08
5.438000,0.0170,-0.1015,0,3,73.46,7.08
5.440000,-0.0076,-0.0981,0,3,73.46,7.08
5.442000,0.0190,-0.0965,0,3,73.46,7.08
5.444000,-0.0238,-0.0968,0,3,73.46,7.08
5.446000,0.0009,-0.0987,0,3,73.46,7.08
5.448000,0.0428,-0.1017,0,3,73.46,7.08
5.450000,-0.0014,-0.1053,0,3,73.46,7.08
5.452000,0.0074,-0.1088,0,3,73.46,7.08
5.454000,-0.0192,-0.1115,0,3,73.46,7.08
5.456000,-0.0121,-0.1131,0,3,73.46,7.08
5.458000,-0.0415,-0.1134,0,3,73.46,7.08
5.460000,0.0053,-0.1123,0,3,73.46,7.08
5.462000,0.0047,-0.1102,0,3,73.46,7.08
5.464000,0.0079,-0.1076,0,3,73.46,7.08
5.466000,-0.0168,-0.1049,0,3,73.46,7.08
5.468000,0.0273,-0.1025,0,3,73.46,7.08
5.470000,0.0018,-0.1005,0,3,73.46,7.08
5.472000,0.0109,-0.0993,0,3,73.46,7.08
5.474000,-0.0105,-0.0987,0,3,73.46,7.08
5.476000,0.0001,-0.0988,0,3,73.46,7.08
5.478000,-0.0027,-0.0996,0,3,73.46,7.08
5.480000,0.0132,-0.1010,0,3,73.46,7.08
5.482000,0.0440,-0.1029,0,3,73.46,7.08
5.484000,-0.0278,-0.1052,0,3,73.46,7.08
5.486000,-0.0246,-0.1075,0,3,73.46,7.08
5.488000,-0.0011,-0.1097,0,3,73.46,7.08
5.490000,-0.0116,-0.1116,0,3,73.46,7.08
5.492000,0.0129,-0.1132,0,3,73.46,7.08
5.494000,0.0069,-0.1143,0,3,73.46,7.08
5.496000,-0.0092,-0.1150,0,3,73.46,7.08
5.498000,-0.0089,-0.1152,0,3,73.46,7.08
5.500000,-0.0611,-0.1149,0,3,73.46,7.08
5.502000,0.0015,-0.1142,0,3,73.46,7.08
5.504000,0.0075,-0.1133,0,3,73.46,7.08
5.506000,0.0030,-0.1125,0,3,73.46,7.08
5.508000,-0.0205,-0.1119,0,3,73.46,7.08
5.510000,-0.0097,-0.1116,0,3,73.46,7.08
5.512000,0.0114,-0.1118,0,3,73.46,7.08
5.514000,-0.0128,-0.1121,0,3,73.46,7.08
5.516000,0.0159,-0.1124,0,3,73.46,7.08
5.518000,-0.0067,-0.1122,0,3,73.46,7.08
5.520000,-0.0242,-0.1113,0,3,73.46,7.08
5.522000,-0.0427,-0.1096,0,3,73.46,7.08
5.524000,0.0013,-0.1070,0,3,73.46,7.08
5.526000,0.0186,-0.1040,0,3,73.46,7.08
5.528000,0.0195,-0.1010,0,3,73.46,7.08
5.530000,-0.0020,-0.0985,0,3,73.46,7.08
5.532000,0.0065,-0.0971,0,3,73.46,7.08
5.534000,0.0223,-0.0968,0,3,73.46,7.08
5.536000,0.0354,-0.0977,0,3,73.46,7.08
5.538000,-0.0228,-0.0995,0,3,73.46,7.08
5.540000,-0.0284,-0.1017,0,3,73.46,7.08
5.542000,0.0256,-0.1038,0,3,73.46,7.08
5.544000,0.0036,-0.1054,0,3,73.46,7.08
5.546000,-0.0149,-0.1063,0,3,73.46,7.08
5.548000,-0.0229,-0.1063,0,3,73.46,7.08
5.550000,0.0412,-0.1055,0,3,73.46,7.08
5.552000,-0.0115,-0.1041,0,3,73.46,7.08
5.554000,0.0307,-0.1024,0,3,73.46,7.08
5.556000,-0.0155,-0.1006,0,3,73.46,7.08
5.558000,0.0248,-0.0990,0,3,73.46,7.08
5.560000,-0.0516,-0.0979,0,3,73.46,7.08
5.562000,-0.0148,-0.0977,0,3,73.46,7.08
5.564000,0.0638,-0.0984,0,3,73.46,7.08
5.566000,0.0251,-0.1002,0,3,73.46,7.08
5.568000,0.0133,-0.1028,0,3,73.46,7.08
5.570000,-0.0247,-0.1058,0,3,73.46,7.08
5.572000,-0.0190,-0.1087,0,3,73.46,7.08
5.574000,0.0054,-0.1110,0,3,73.46,7.08
5.576000,-0.0267,-0.1125,0,3,73.46,7.08
5.578000,0.0017,-0.1131,0,3,73.46,7.08
5.580000,0.0122,-0.1129,0,3,73.46,7.08
5.582000,-0.0277,-0.1121,0,3,73.46,7.08
5.584000,-0.0190,-0.1113,0,3,73.46,7.08
5.586000,-0.0074,-0.1108,0,3,73.46,7.08
5.588000,0.0064,-0.1110,0,3,73.46,7.08
5.590000,0.0175,-0.1120,0,3,73.46,7.08
5.592000,-0.0133,-0.1136,0,3,73.46,7.08
5.594000,0.0038,-0.1157,0,3,73.46,7.08
5.596000,-0.0183,-0.1178,0,3,73.46,7.08
5.598000,-0.0527,-0.1193,0,3,73.46,7.08
5.600000,-0.0194,-0.1198,0,3,73.46,7.08
5.602000,0.0021,-0.1193,0,3,73.46,7.08
5.604000,0.0037,-0.1176,0,3,73.46,7.08
5.606000,-0.0334,-0.1151,0,3,73.46,7.08
5.608000,-0.0150,-0.1120,0,3,73.46,7.08
5.610000,0.0201,-0.1086,0,3,73.46,7.08
5.612000,0.0282,-0.1054,0,3,73.46,7.08
5.614000,-0.0298,-0.1026,0,3,73.46,7.08
5.616000,0.0255,-0.1004,0,3,73.46,7.08
5.618000,-0.0182,-0.0988,0,3,73.46,7.08
5.620000,0.0010,-0.0981,0,3,73.46,7.08
5.622000,-0.0014,-0.0982,0,3,73.46,7.08
5.624000,0.0286,-0.0994,0,3,73.46,7.08
5.626000,0.0002,-0.1015,0,3,73.46,7.08
5.628000,-0.0054,-0.1047,0,3,73.46,7.08
5.630000,-0.0099,-0.1088,0,3,73.46,7.08
5.632000,0.0197,-0.1135,0,3,73.46,7.08
5.634000,-0.0308,-0.1182,0,3,73.46,7.08
5.636000,-0.0043,-0.1225,0,3,73.46,7.08
5.638000,-0.0274,-0.1257,0,3,73.46,7.08
5.640000,-0.0083,-0.1271,0,3,73.46,7.08
5.642000,-0.0569,-0.1263,0,3,73.46,7.08
5.644000,0.0120,-0.1232,0,3,73.46,7.08
5.646000,-0.0215,-0.1181,0,3,73.46,7.08
5.648000,-0.0324,-0.1117,0,3,73.46,7.08
5.650000,-0.0019,-0.1051,0,3,73.46,7.08
5.652000,-0.0006,-0.0996,0,3,73.46,7.08
5.654000,0.0281,-0.0964,0,3,73.46,7.08
5.656000,0.0274,-0.0962,0,3,73.46,7.08
5.658000,0.0377,-0.0992,0,3,73.46,7.08
5.660000,-0.0171,-0.1048,0,3,73.46,7.08
5.662000,-0.0277,-0.1120,0,3,73.46,7.08
5.664000,-0.0001,-0.1192,0,3,73.46,7.08
5.666000,-0.0491,-0.1248,0,3,73.46,7.08
5.668000,-0.0201,-0.1278,0,3,73.46,7.08
5.670000,-0.0118,-0.1272,0,3,73.46,7.08
5.672000,-0.0154,-0.1232,0,3,73.46,7.08
5.674000,-0.0154,-0.1162,0,3,73.46,7.08
5.676000,-0.0181,-0.1072,0,3,73.46,7.08
5.678000,0.0251,-0.0976,0,3,73.46,7.08
5.680000,0.0017,-0.0888,0,3,73.46,7.08
5.682000,0.0451,-0.0821,0,3,73.46,7.08
5.684000,0.0173,-0.0782,0,3,73.46,7.08
5.686000,0.0203,-0.0776,0,3,73.46,7.08
5.688000,0.0424,-0.0801,0,3,73.46,7.08
5.690000,0.0495,-0.0851,0,3,73.46,7.08
5.692000,0.0031,-0.0916,0,3,73.46,7.08
5.694000,-0.0159,-0.0986,0,3,73.46,7.08
5.696000,-0.0128,-0.1050,0,3,73.46,7.08
5.698000,-0.0320,-0.1101,0,3,73.46,7.08
5.700000,0.0114,-0.1135,0,3,73.46,7.08
5.702000,-0.0025,-0.1152,0,3,73.46,7.08
5.704000,0.0219,-0.1153,0,3,73.46,7.08
5.706000,-0.0207,-0.1141,0,3,73.46,7.08
5.708000,-0.0142,-0.1119,0,3,73.46,7.08
5.710000,0.0009,-0.1092,0,3,73.46,7.08
5.712000,-0.0287,-0.1062,0,3,73.46,7.08
5.714000,0.0012,-0.1034,0,3,73.46,7.08
5.716000,0.0494,-0.1012,0,3,73.46,7.08
5.718000,-0.0288,-0.0997,0,3,73.46,7.08
5.720000,0.0290,-0.0992,0,3,73.46,7.08
5.722000,-0.0171,-0.0995,0,3,73.46,7.08
5.724000,0.0163,-0.1004,0,3,73.46,7.08
5.726000,-0.0002,-0.1017,0,3,73.46,7.08
5.728000,0.0066,-0.1032,0,3,73.46,7.08
5.730000,-0.0168,-0.1047,0,3,73.46,7.08
5.732000,0.0294,-0.1060,0,3,73.46,7.08
5.734000,-0.0197,-0.1072,0,3,73.46,7.08
5.736000,-0.0123,-0.1082,0,3,73.46,7.08
5.738000,-0.0014,-0.1090,0,3,73.46,7.08
5.740000,0.0165,-0.1096,0,3,73.46,7.08
5.742000,-0.0120,-0.1100,0,3,73.46,7.08
5.744000,-0.0003,-0.1101,0,3,73.46,7.08
5.746000,-0.0339,-0.1098,0,3,73.46,7.08
5.748000,0.0121,-0.1091,0,3,73.46,7.08
5.750000,0.0067,-0.1081,0,3,73.46,7.08
5.752000,0.0034,-0.1071,0,3,73.46,7.08
5.754000,-0.0123,-0.1062,0,3,73.46,7.08
5.756000,-0.0071,-0.1058,0,3,73.46,7.08
5.758000,-0.0039,-0.1059,0,3,73.46,7.08
5.760000,-0.0074,-0.1066,0,3,73.46,7.08
5.762000,0.0322,-0.1078,0,3,73.46,7.08
5.764000,-0.0091,-0.1093,0,3,73.46,7.08
5.766000,-0.0226,-0.1107,0,3,73.46,7.08
5.768000,0.0009,-0.1118,0,3,73.46,7.08
5.770000,-0.0024,-0.1122,0,3,73.46,7.08
5.772000,0.0074,-0.1118,0,3,73.46,7.08
5.774000,-0.0522,-0.1108,0,3,73.46,7.08
5.776000,0.0074,-0.1095,0,3,73.46,7.08
5.778000,-0.0092,-0.1083,0,3,73.46,7.08
5.780000,0.0196,-0.1078,0,3,73.46,7.08
5.782000,-0.0171,-0.1082,0,3,73.46,7.08
5.784000,0.0348,-0.1094,0,3,73.46,7.08
5.786000,-0.0121,-0.1114,0,3,73.46,7.08
5.788000,-0.0499,-0.1135,0,3,73.46,7.08
5.790000,0.0270,-0.1153,0,3,73.46,7.08
5.792000,0.0045,-0.1163,0,3,73.46,7.08
5.794000,-0.0378,-0.1163,0,3,73.46,7.08
5.796000,-0.0469,-0.1151,0,3,73.46,7.08
5.798000,-0.0155,-0.1131,0,3,73.46,7.08
5.800000,0.0315,-0.1107,0,3,73.46,7.08
5.802000,0.0057,-0.1084,0,3,73.46,7.08
5.804000,-0.0039,-0.1066,0,3,73.46,7.08
5.806000,0.0142,-0.1054,0,3,73.46,7.08
5.808000,0.0054,-0.1045,0,3,73.46,7.08
5.810000,-0.0121,-0.1038,0,3,73.46,7.08
5.812000,-0.0100,-0.1028,0,3,73.46,7.08
5.814000,0.0125,-0.1013,0,3,73.46,7.08
5.816000,-0.0122,-0.0990,0,3,73.46,7.08
5.818000,0.0386,-0.0962,0,3,73.46,7.08
5.820000,-0.0218,-0.0929,0,3,73.46,7.08
5.822000,0.0230,-0.0895,0,3,73.46,7.08
5.824000,0.0260,-0.0862,0,3,73.46,7.08
5.826000,0.0324,-0.0832,0,3,73.46,7.08
5.828000,0.0157,-0.0806,0,3,73.46,7.08
5.830000,0.0481,-0.0781,0,3,73.46,7.08
5.832000,0.0435,-0.0754,0,3,73.46,7.08
5.834000,0.0225,-0.0721,0,3,73.46,7.08
5.836000,0.0275,-0.0677,0,3,73.46,7.08
5.838000,0.0303,-0.0619,0,3,73.46,7.08
5.840000,0.0278,-0.0548,0,3,73.46,7.08
5.842000,0.0424,-0.0467,0,3,73.46,7.08
5.844000,0.1060,-0.0381,0,3,73.46,7.08
5.846000,0.1018,-0.0294,0,3,73.46,7.08
5.848000,0.0853,-0.0211,0,3,73.46,7.08
5.850000,0.0739,-0.0133,0,3,73.46,7.08
5.852000,0.1128,-0.0060,0,3,73.46,7.08
5.854000,0.1091,0.0010,0,3,73.46,7.08
5.856000,0.0983,0.0080,0,3,73.46,7.08
5.858000,0.1451,0.0151,0,3,73.46,7.08
5.860000,0.0659,0.0224,0,3,73.46,7.08
5.862000,0.1281,0.0294,0,3,73.46,7.08
5.864000,0.1673,0.0358,0,3,73.46,7.08
5.866000,0.1729,0.0411,0,3,73.46,7.08
5.868000,0.1346,0.0450,0,3,73.46,7.08
5.870000,0.1885,0.0474,0,3,73.46,7.08
5.872000,0.1610,0.0486,0,3,73.46,7.08
5.874000,0.1204,0.0492,0,3,73.46,7.08
5.876000,0.1569,0.0498,0,3,73.46,7.08
5.878000,0.1734,0.0509,0,3,73.46,7.08
5.880000,0.1088,0.0528,0,3,73.46,7.08
5.882000,0.1789,0.0556,0,3,73.46,7.08
5.884000,0.1746,0.0587,0,3,73.46,7.08
5.886000,0.1381,0.0614,0,3,73.46,7.08
5.888000,0.1975,0.0628,0,3,73.46,7.08
5.890000,0.1801,0.0622,0,3,73.46,7.08
5.892000,0.1779,0.0590,0,3,73.46,7.08
5.894000,0.1357,0.0531,0,3,73.46,7.08
5.896000,0.1401,0.0448,0,3,73.46,7.08
5.898000,0.1720,0.0346,0,3,73.46,7.08
5.900000,0.1280,0.0236,0,3,73.46,7.08
5.902000,0.1131,0.0127,0,3,73.46,7.08
5.904000,0.0692,0.0027,0,3,73.46,7.08
5.906000,0.0938,-0.0058,0,3,73.46,7.08
5.908000,0.1219,-0.0127,0,3,73.46,7.08
5.910000,0.0963,-0.0182,0,3,73.46,7.08
5.912000,0.0905,-0.0227,0,3,73.46,7.08
5.914000,0.0458,-0.0270,0,3,73.46,7.08
5.916000,0.0958,-0.0316,0,3,73.46,7.08
5.918000,0.0724,-0.0369,0,3,73.46,7.08
5.920000,0.0474,-0.0432,0,3,73.46,7.08
5.922000,0.0912,-0.0504,0,3,73.46,7.08
5.924000,0.0057,-0.0583,0,3,73.46,7.08
5.926000,0.0675,-0.0666,0,3,73.46,7.08
5.928000,-0.0040,-0.0749,0,3,73.46,7.08
5.930000,0.0433,-0.0830,0,3,73.46,7.08
5.932000,0.0455,-0.0906,0,3,73.46,7.08
5.934000,-0.0322,-0.0975,0,3,73.46,7.08
5.936000,0.0147,-0.1038,0,3,73.46,7.08
5.938000,-0.0053,-0.1091,0,3,73.46,7.08
5.940000,-0.0104,-0.1132,0,3,73.46,7.08
5.942000,-0.0263,-0.1158,0,3,73.46,7.08
5.944000,-0.0053,-0.1159,0,3,73.46,7.08
5.946000,-0.0051,-0.1123,0,3,73.46,7.08
5.948000,0.0074,-0.1032,0,3,73.46,7.08
5.950000,0.0390,-0.0861,0,3,73.46,7.08
5.952000,0.0599,-0.0582,0,3,73.46,7.08
5.954000,0.0790,-0.0159,0,3,73.46,7.08
5.956000,0.1523,0.0442,0,3,73.46,7.08
5.958000,0.2591,0.1248,0,3,73.46,7.08
5.960000,0.3035,0.2278,0,3,73.46,7.08
5.962000,0.4452,0.3535,0,3,73.46,7.08
5.964000,0.6242,0.4998,0,3,73.46,7.08
5.966000,0.7508,0.6621,0,3,73.46,7.08
5.968000,0.9273,0.8334,0,3,73.46,7.08
5.970000,1.0971,1.0042,0,3,73.46,7.08
5.972000,1.2420,1.1638,0,3,73.46,7.08
5.974000,1.4095,1.3004,0,3,73.46,7.08
5.976000,1.5423,1.4031,0,3,73.46,7.08
5.978000,1.5648,1.4629,1,3,73.46,7.08
5.980000,1.5887,1.4736,1,3,73.46,7.08
5.982000,1.5700,1.4332,1,3,73.46,7.08
5.984000,1.4818,1.3437,0,3,73.46,7.08
5.986000,1.2956,1.2115,0,3,73.46,7.08
5.988000,1.1753,1.0463,0,3,73.46,7.08
5.990000,0.9651,0.8604,0,3,73.46,7.08
5.992000,0.7533,0.6669,0,3,73.46,7.08
5.994000,0.5756,0.4789,0,3,73.46,7.08
5.996000,0.3872,0.3074,0,3,73.46,7.08
5.998000,0.2515,0.1607,0,3,73.46,7.08
6.000000,0.1127,0.0441,0,3,73.46,7.08
6.002000,0.0741,-0.0411,0,3,73.46,7.08
6.004000,0.0080,-0.0963,0,3,73.46,7.08
6.006000,0.0071,-0.1256,0,3,73.46,7.08
6.008000,0.0243,-0.1343,0,3,73.46,7.08
6.010000,-0.0203,-0.1284,0,3,73.46,7.08
6.012000,-0.0336,-0.1135,0,3,73.46,7.08
6.014000,0.0092,-0.0946,0,3,73.46,7.08
6.016000,0.0382,-0.0753,0,3,73.46,7.08
6.018000,0.0493,-0.0580,0,3,73.46,7.08
6.020000,0.0851,-0.0442,0,3,73.46,7.08
6.022000,0.0547,-0.0340,0,3,73.46,7.08
6.024000,0.0345,-0.0272,0,3,73.46,7.08
6.026000,0.0996,-0.0231,0,3,73.46,7.08
6.028000,0.0972,-0.0209,0,3,73.46,7.08
6.030000,0.0855,-0.0197,0,3,73.46,7.08
6.032000,0.0668,-0.0191,0,3,73.46,7.08
6.034000,0.1201,-0.0183,0,3,73.46,7.08
6.036000,0.0713,-0.0169,0,3,73.46,7.08
6.038000,0.1145,-0.0143,0,3,73.46,7.08
6.040000,0.0954,-0.0098,0,3,73.46,7.08
6.042000,0.1082,-0.0030,0,3,73.46,7.08
6.044000,0.0661,0.0063,0,3,73.46,7.08
6.046000,0.1400,0.0182,0,3,73.46,7.08
6.048000,0.1532,0.0324,0,3,73.46,7.08
6.050000,0.1433,0.0482,0,3,73.46,7.08
6.052000,0.1881,0.0649,0,3,73.46,7.08
6.054000,0.1710,0.0814,0,3,73.46,7.08
6.056000,0.2117,0.0969,0,3,73.46,7.08
6.058000,0.2129,0.1109,0,3,73.46,7.08
6.060000,0.2291,0.1229,0,3,73.46,7.08
6.062000,0.2512,0.1329,0,3,73.46,7.08
6.064000,0.2489,0.1412,0,3,73.46,7.08
6.066000,0.2394,0.1482,0,3,73.46,7.08
6.068000,0.2508,0.1546,0,3,73.46,7.08
6.070000,0.3036,0.1610,0,3,73.46,7.08
6.072000,0.2674,0.1680,0,3,73.46,7.08
6.074000,0.2833,0.1759,0,3,73.46,7.08
6.076000,0.2724,0.1850,0,3,73.46,7.08
6.078000,0.2878,0.1950,0,3,73.46,7.08
6.080000,0.3005,0.2056,0,3,73.46,7.08
6.082000,0.3174,0.2159,0,3,73.46,7.08
6.084000,0.3775,0.2255,0,3,73.46,7.08
6.086000,0.3463,0.2336,0,3,73.46,7.08
6.088000,0.3481,0.2401,0,3,73.46,7.08
6.090000,0.3694,0.2450,0,3,73.46,7.08
6.092000,0.3050,0.2484,0,3,73.46,7.08
6.094000,0.3624,0.2507,0,3,73.46,7.08
6.096000,0.3501,0.2520,0,3,73.46,7.08
6.098000,0.3714,0.2523,0,3,73.46,7.08
6.100000,0.3464,0.2517,0,3,73.46,7.08
6.102000,0.3698,0.2498,0,3,73.46,7.08
6.104000,0.3508,0.2466,0,3,73.46,7.08
6.106000,0.3645,0.2420,0,3,73.46,7.08
6.108000,0.3340,0.2360,0,3,73.46,7.08
6.110000,0.3297,0.2288,0,3,73.46,7.08
6.112000,0.3051,0.2208,0,3,73.46,7.08
6.114000,0.3492,0.2124,0,3,73.46,7.08
6.116000,0.3241,0.2041,0,3,73.46,7.08
6.118000,0.3098,0.1964,0,3,73.46,7.08
6.120000,0.2585,0.1899,0,3,73.46,7.08
6.122000,0.2877,0.1846,0,3,73.46,7.08
6.124000,0.2765,0.1807,0,3,73.46,7.08
6.126000,0.3043,0.1776,0,3,73.46,7.08
6.128000,0.2979,0.1748,0,3,73.46,7.08
6.130000,0.2754,0.1713,0,3,73.46,7.08
6.132000,0.2537,0.1663,0,3,73.46,7.08
6.134000,0.2646,0.1593,0,3,73.46,7.08
6.136000,0.2584,0.1496,0,3,73.46,7.08
6.138000,0.2499,0.1372,0,3,73.46,7.08
6.140000,0.2209,0.1223,0,3,73.46,7.08
6.142000,0.2585,0.1057,0,3,73.46,7.08
6.144000,0.1707,0.0883,0,3,73.46,7.08
6.146000,0.1703,0.0713,0,3,73.46,7.08
6.148000,0.1425,0.0557,0,3,73.46,7.08
6.150000,0.1676,0.0423,0,3,73.46,7.08
