timestamp_s,filtered_mV,loop,hr_bpm,snr_wb_db,snr_qrs_db
0.938000,137.8750,0,,,
0.948000,137.2500,0,,,
0.958000,136.2500,0,,,
0.968000,135.7500,0,,,
0.978000,136.0000,0,,,
0.988000,134.5000,0,,,
0.998000,134.1250,0,,,
1.008000,133.7500,0,,,
1.018000,133.3750,0,,,
1.028000,133.0000,0,,,
1.038000,132.0000,0,,,
1.048000,131.7500,0,,,
1.058000,131.3750,0,,,
1.068000,130.5000,0,,,
1.078000,129.7500,0,,,
1.088000,129.7500,0,,,
1.098000,128.8750,0,,,
1.108000,128.1250,0,,,
1.118000,127.3750,0,,,
1.128000,127.1250,0,,,
1.138000,126.6250,0,,,
1.148000,125.2500,0,,,
1.158000,124.8750,0,,,
1.168000,124.7500,0,,,
1.178000,122.7500,0,,,
1.188000,124.0000,0,,,
1.198000,122.1250,0,,,
1.208000,122.3750,0,,,
1.218000,122.0000,0,,,
1.228000,119.8750,0,,,
1.238000,119.1250,0,,,
1.248000,119.1250,0,,,
1.258000,117.8750,0,,,
1.268000,118.0000,0,,,
1.278000,117.1250,0,,,
1.288000,115.7500,0,,,
1.298000,115.8750,0,,,
1.308000,114.8750,0,,,
1.318000,114.1250,0,,,
1.328000,113.1250,0,,,
1.338000,112.8750,0,,,
1.348000,110.8750,0,,,
1.358000,111.0000,0,,,
1.368000,110.5000,0,,,
1.378000,110.1250,0,,,
1.388000,109.7500,0,,,
1.398000,108.3750,0,,,
1.408000,106.3750,0,,,
1.418000,106.5000,0,,,
1.428000,105.7500,0,,,
1.438000,103.8750,0,,,
1.448000,104.8750,0,,,
1.458000,104.1250,0,,,
1.468000,102.5000,0,,,
1.478000,101.8750,0,,,
1.488000,101.1250,0,,,
1.498000,100.3750,0,,,
1.508000,100.1250,0,,,
1.518000,99.5000,0,,,
1.528000,98.0000,0,,,
1.538000,96.7500,0,,,
1.548000,95.8750,0,,,
1.558000,95.7500,0,,,
1.568000,95.2500,0,,,
1.578000,94.3750,0,,,
1.588000,93.8750,0,,,
1.598000,92.8750,0,,,
1.608000,91.8750,0,,,
1.618000,91.0000,0,,,
1.628000,90.5000,0,,,
1.638000,90.0000,0,,,
1.648000,89.3750,0,,,
1.658000,88.7500,0,,,
1.668000,88.3750,0,,,
1.678000,86.6250,0,,,
1.688000,85.8750,0,,,
1.698000,84.7500,0,,,
1.708000,84.0000,0,,,
1.718000,82.2500,0,,,
1.728000,82.8750,0,,,
1.738000,82.2500,0,,,
1.748000,79.8750,0,,,
1.758000,81.3750,0,,,
1.768000,80.0000,0,,,
1.778000,78.2500,0,,,
1.788000,78.1250,0,,,
1.798000,76.8750,0,,,
1.808000,76.3750,0,,,
1.818000,76.2500,0,,,
1.828000,75.5000,0,,,
1.838000,74.8750,0,,,
1.848000,72.5000,0,,,
1.858000,74.2500,0,,,
1.868000,73.8750,0,,,
1.878000,71.5000,0,,,
1.888000,70.3750,0,,,
1.898000,69.2500,0,,,
1.908000,68.8750,0,,,
1.918000,68.5000,0,,,
1.928000,67.8750,0,,,
1.938000,65.6250,0,,,
1.948000,63.6250,0,,,
1.958000,65.3750,0,,,
1.968000,63.6250,0,,,
1.978000,62.1250,0,,,
1.988000,62.7500,0,,,
1.998000,62.0000,0,,,
2.008000,59.7500,0,,,
2.018000,58.8750,0,,,
2.028000,58.5000,0,,,
2.038000,58.2500,0,,,
2.048000,56.6250,0,,,
2.058000,57.8750,0,,,
2.068000,55.8750,0,,,
2.078000,51.5000,0,,,
2.088000,53.3750,0,,,
2.098000,54.5000,0,,,
2.108000,54.3750,0,,,
2.118000,48.2500,0,,,
2.128000,46.7500,0,,,
2.138000,54.0000,0,,,
2.148000,40.6250,0,,,
2.158000,49.5000,0,,,
2.168000,47.2500,0,,,
2.178000,39.7500,0,,,
2.188000,46.7500,0,,,
2.198000,47.5000,0,,,
2.208000,55.8750,0,,,
2.218000,13.3750,0,,,
2.228000,35.3750,0,,,
2.238000,66.3750,0,,,
2.248000,113.3750,0,,,
2.258000,89.5000,0,,,
2.268000,41.0000,0,,,
2.278000,60.5000,0,,,
2.288000,57.7500,0,,,
2.298000,62.2500,0,,,
2.308000,48.8750,0,,,
2.318000,46.0000,0,,,
2.328000,41.7500,0,,,
2.338000,38.8750,0,,,
2.348000,45.3750,0,,,
2.358000,42.8750,0,,,
2.368000,40.5000,0,,,
2.378000,39.5000,0,,,
2.388000,38.2500,0,,,
2.398000,40.6250,0,,,
2.408000,38.1250,0,,,
2.418000,38.1250,0,,,
2.428000,35.2500,0,,,
2.438000,35.5000,0,,,
2.448000,32.6250,0,,,
2.458000,35.2500,0,,,
2.468000,32.3750,0,,,
2.478000,32.2500,0,,,
2.488000,31.3750,0,,,
2.498000,31.7500,0,,,
2.508000,28.6250,0,,,
2.518000,29.8750,0,,,
2.528000,28.6250,0,,,
2.538000,28.8750,0,,,
2.548000,27.6250,0,,,
2.558000,26.3750,0,,,
2.568000,26.8750,0,,,
2.578000,27.2500,0,,,
2.588000,25.5000,0,,,
2.598000,24.8750,0,,,
2.608000,23.7500,0,,,
2.618000,23.0000,0,,,
2.628000,21.8750,0,,,
2.638000,22.5000,0,,,
2.648000,21.1250,0,,,
2.658000,20.1250,0,,,
2.668000,20.8750,0,,,
2.678000,19.3750,0,,,
2.688000,18.1250,0,,,
2.698000,18.7500,0,,,
2.708000,17.3750,0,,,
2.718000,17.0000,0,,,
2.728000,16.1250,0,,,
2.738000,15.0000,0,,,
2.748000,15.1250,0,,,
2.758000,14.7500,0,,,
2.768000,13.7500,0,,,
2.778000,13.7500,0,,,
2.788000,12.5000,0,,,
2.798000,12.7500,0,,,
2.808000,11.3750,0,,,
2.818000,10.2500,0,,,
2.828000,10.7500,0,,,
2.838000,9.8750,0,,,
2.848000,9.5000,0,,,
2.858000,8.8750,0,,,
2.868000,8.6250,0,,,
2.878000,8.2500,0,,,
2.888000,7.8750,0,,,
2.898000,7.1250,0,,,
2.908000,6.5000,0,,,
2.918000,5.1250,0,,,
2.928000,5.0000,0,,,
2.938000,4.6250,0,,,
2.948000,3.7500,0,,,
2.958000,3.2500,0,,,
2.968000,2.5000,0,,,
2.978000,3.2500,0,,,
2.988000,2.2500,0,,,
2.998000,1.7500,0,,,
3.008000,0.6250,0,,,
3.018000,0.2500,0,,,
3.028000,-0.1250,0,,,
3.038000,-1.0000,0,,,
3.048000,-0.8750,0,,,
3.058000,-1.7500,0,,,
3.068000,-2.2500,0,,,
3.078000,-2.6250,0,,,
3.088000,-2.5000,0,,,
3.098000,-3.5000,0,,,
3.108000,-3.7500,0,,,
3.118000,-4.5000,0,,,
3.128000,-4.5000,0,,,
3.138000,-5.3750,0,,,
3.148000,-5.7500,0,,,
3.158000,-6.0000,0,,,
3.168000,-6.3750,0,,,
3.178000,-6.5000,0,,,
3.188000,-7.5000,0,,,
3.198000,-7.6250,0,,,
3.208000,-8.1250,0,,,
3.218000,-8.5000,0,,,
3.228000,-8.7500,0,,,
3.238000,-8.7500,0,,,
3.248000,-9.7500,0,,,
3.258000,-10.0000,0,,,
3.268000,-10.1250,0,,,
3.278000,-11.0000,0,,,
3.288000,-11.5000,0,,,
3.298000,-11.6250,0,,,
3.308000,-12.0000,0,,,
3.318000,-11.8750,0,,,
3.328000,-13.2500,0,,,
3.338000,-13.6250,0,,,
3.348000,-13.2500,0,,,
3.358000,-14.6250,0,,,
3.368000,-14.1250,0,,,
3.378000,-15.0000,0,,,
3.388000,-15.1250,0,,,
3.398000,-15.1250,0,,,
3.408000,-16.0000,0,,,
3.418000,-16.8750,0,,,
3.428000,-17.2500,0,,,
3.438000,-17.1250,0,,,
3.448000,-17.5000,0,,,
3.458000,-18.5000,0,,,
3.468000,-18.6250,0,,,
3.478000,-19.2500,0,,,
3.488000,-18.6250,0,,,
3.498000,-19.2500,0,,,
3.508000,-20.6250,0,,,
3.518000,-19.5000,0,,,
3.528000,-20.7500,0,,,
3.538000,-21.3750,0,,,
3.548000,-21.8750,0,,,
3.558000,-22.0000,0,,,
3.568000,-21.8750,0,,,
3.578000,-22.2500,0,,,
3.588000,-22.8750,0,,,
3.598000,-23.3750,0,,,
3.608000,-23.3750,0,,,
3.618000,-23.8750,0,,,
3.628000,-24.6250,0,,,
3.638000,-24.3750,0,,,
3.648000,-25.0000,0,,,
3.658000,-25.2500,0,,,
3.668000,-25.8750,0,,,
3.678000,-26.1250,0,,,
3.688000,-26.2500,0,,,
3.698000,-27.1250,0,,,
3.708000,-26.7500,0,,,
3.718000,-27.6250,0,,,
3.728000,-28.1250,0,,,
3.738000,-28.5000,0,,,
3.748000,-28.2500,0,,,
3.758000,-29.2500,0,,,
3.768000,-29.2500,0,,,
3.778000,-29.7500,0,,,
3.788000,-29.8750,0,,,
3.798000,-30.7500,0,,,
3.808000,-30.0000,0,,,
3.818000,-31.1250,0,,,
3.828000,-31.1250,0,,,
3.838000,-31.7500,0,,,
3.848000,-32.3750,0,,,
3.858000,-31.8750,0,,,
3.868000,-32.6250,0,,,
3.878000,-32.6250,0,,,
3.888000,-32.8750,0,,,
3.898000,-33.0000,0,,,
3.908000,-33.3750,0,,,
3.918000,-33.7500,0,,,
3.928000,-34.1250,0,,,
3.938000,-34.3750,0,,,
3.948000,-34.0000,0,,,
3.958000,-34.8750,0,,,
3.968000,-34.8750,0,,,
3.978000,-35.2500,0,,,
3.988000,-36.7500,0,,,
3.998000,-36.3750,0,,,
4.008000,-37.8750,0,,,
4.018000,-38.6250,0,,,
4.028000,-39.5000,0,,,
4.038000,-40.1250,0,,,
4.048000,-40.6250,0,,,
4.058000,-43.3750,0,,,
4.068000,-44.0000,0,,,
4.078000,-44.2500,0,,,
4.088000,-44.7500,0,,,
4.098000,-45.0000,0,,,
4.108000,-45.8750,0,,,
4.118000,-46.1250,0,,,
4.128000,-46.3750,0,,,
4.138000,-46.3750,0,,,
4.148000,-46.5000,0,,,
4.158000,-46.8750,0,,,
4.168000,-47.6250,0,,,
4.178000,-48.0000,0,,,
4.188000,-49.1250,0,,,
4.198000,-49.7500,0,,,
4.208000,-51.5000,0,,,
4.218000,-52.1250,0,,,
4.228000,-53.2500,0,,,
4.238000,-55.6250,0,,,
4.248000,-56.0000,0,,,
4.258000,-57.0000,0,,,
4.268000,-57.8750,0,,,
4.278000,-57.7500,0,,,
4.288000,-58.3750,0,,,
4.298000,-58.5000,0,,,
4.308000,-59.0000,0,,,
4.318000,-59.7500,0,,,
4.328000,-59.6250,0,,,
4.338000,-59.6250,0,,,
4.348000,-59.7500,0,,,
4.358000,-59.3750,0,,,
4.368000,-59.8750,0,,,
4.378000,-60.0000,0,,,
4.388000,-59.8750,0,,,
4.398000,-61.1250,0,,,
4.408000,-60.7500,0,,,
4.418000,-61.2500,0,,,
4.428000,-61.6250,0,,,
4.438000,-61.3750,0,,,
4.448000,-63.6250,0,,,
4.458000,-63.8750,0,,,
4.468000,-64.3750,0,,,
4.478000,-66.8750,0,,,
4.488000,-65.7500,0,,,
4.498000,-65.6250,0,,,
4.508000,-67.3750,0,,,
4.518000,-66.0000,0,,,
4.528000,-66.6250,0,,,
4.538000,-66.2500,0,,,
4.548000,-67.5000,0,,,
4.558000,-67.6250,0,,,
4.568000,-69.3750,0,,,
4.578000,-66.1250,0,,,
4.588000,-67.3750,0,,,
4.598000,-69.1250,0,,,
4.608000,-67.3750,0,,,
4.618000,-68.8750,0,,,
4.628000,-70.0000,0,,,
4.638000,-72.7500,0,,,
4.648000,-71.2500,0,,,
4.658000,-71.3750,0,,,
4.668000,-72.5000,0,,,
4.678000,-71.7500,0,,,
4.688000,-71.8750,0,,,
4.698000,-73.1250,0,,,
4.708000,-73.5000,0,,,
4.718000,-72.5000,0,,,
4.728000,-73.6250,0,,,
4.738000,-72.3750,0,,,
4.748000,-73.7500,0,,,
4.758000,-73.0000,0,,,
4.768000,-74.6250,0,,,
4.778000,-71.2500,0,,,
4.788000,-73.7500,0,,,
4.798000,-74.3750,0,,,
4.808000,-74.3750,0,,,
4.818000,-73.6250,0,,,
4.828000,-73.8750,0,,,
4.838000,-73.6250,0,,,
4.848000,-74.5000,0,,,
4.858000,-74.7500,0,,,
4.868000,-74.2500,0,,,
4.878000,-75.0000,0,,,
4.888000,-73.6250,0,,,
4.898000,-75.5000,0,,,
4.908000,-75.7500,0,,,
4.918000,-74.1250,0,,,
4.928000,-73.7500,0,,,
4.938000,-74.0000,0,,,
4.948000,-77.3750,0,,,
4.958000,-77.1250,0,,,
4.968000,-74.1250,0,,,
4.978000,-80.0000,0,,,
4.988000,-76.1250,0,,,
4.998000,-75.3750,0,,,
5.008000,-74.1250,0,,,
5.018000,-78.3750,0,,,
5.028000,-73.8750,0,,,
5.038000,-76.8750,0,,,
5.048000,-77.0000,0,,,
5.058000,-77.7500,0,,,
5.068000,-76.6250,0,,,
5.078000,-77.5000,0,,,
5.088000,-76.5000,0,,,
5.098000,-78.2500,0,,,
5.108000,-77.3750,0,,,
5.118000,-74.8750,0,,,
5.128000,-76.5000,0,,,
5.138000,-74.1250,0,,,
5.148000,-76.2500,0,,,
5.158000,-77.3750,0,,,
5.168000,-76.8750,0,,,
5.178000,-78.7500,0,,,
5.188000,-77.8750,0,,,
5.198000,-75.3750,0,,,
5.208000,-74.1250,0,,,
5.218000,-77.0000,0,,,
5.228000,-75.3750,0,,,
5.238000,-73.7500,0,,,
5.248000,-74.6250,0,,,
5.258000,-76.8750,0,,,
5.268000,-79.1250,0,,,
5.278000,-77.8750,0,,,
5.288000,-79.8750,0,,,
5.298000,-75.8750,0,,,
5.308000,-78.5000,0,,,
5.318000,-79.0000,0,,,
5.328000,-75.7500,0,,,
5.338000,-79.2500,0,,,
5.348000,-78.6250,0,,,
5.358000,-73.2500,0,,,
5.368000,-75.1250,0,,,
5.378000,-77.3750,0,,,
5.388000,-78.5000,0,,,
5.398000,-77.0000,0,,,
5.408000,-78.5000,0,,,
5.418000,-76.6250,0,,,
5.428000,-76.5000,0,,,
5.438000,-76.5000,0,,,
5.448000,-79.8750,0,,,
5.458000,-76.2500,0,,,
5.468000,-78.1250,3,,-25.38,
5.478000,-79.0000,3,,-25.38,
5.488000,-73.0000,3,,-25.38,
5.498000,-74.3750,3,,-25.38,
5.508000,-71.8750,3,,-25.38,
5.518000,-76.5000,3,,-25.38,
5.528000,-79.0000,3,,-25.38,
5.538000,-80.7500,3,,-25.38,
5.548000,-76.2500,3,,-25.38,
5.558000,-74.3750,3,,-25.38,
5.568000,-77.8750,3,,-25.38,
5.578000,-76.8750,3,,-25.38,
5.588000,-75.5000,3,,-25.38,
5.598000,-76.1250,3,,-25.38,
5.608000,-81.3750,3,,-25.38,
5.618000,-80.7500,3,,-25.38,
5.628000,-78.1250,3,,-25.38,
5.638000,-75.6250,3,,-25.38,
5.648000,-79.1250,3,,-25.38,
5.658000,-76.8750,3,,-25.38,
5.668000,-76.5000,3,,-25.38,
5.678000,-78.3750,3,,-25.38,
5.688000,-77.7500,3,,-25.38,
5.698000,-75.1250,3,,-25.38,
5.708000,-78.1250,3,,-25.38,
5.718000,-76.6250,3,,-25.38,
5.728000,-77.0000,3,,-25.38,
5.738000,-76.5000,3,,-25.38,
5.748000,-76.1250,3,,-25.38,
5.758000,-79.0000,3,,-25.38,
5.768000,-75.7500,3,,-25.38,
5.778000,-76.2500,3,,-25.38,
5.788000,-77.6250,3,,-25.38,
5.798000,-72.7500,3,,-25.38,
5.808000,-76.7500,3,,-25.38,
5.818000,-75.5000,3,,-25.38,
5.828000,-77.1250,3,,-25.38,
5.838000,-77.5000,3,,-25.38,
5.848000,-74.8750,3,,-25.38,
5.858000,-85.6250,3,,-25.38,
5.868000,-75.0000,3,,-25.38,
5.878000,-82.6250,3,,-25.38,
5.888000,-78.0000,3,,-25.38,
5.898000,-79.6250,3,,-25.38,
5.908000,-76.0000,3,,-25.38,
5.918000,-75.5000,3,,-25.38,
5.928000,-74.5000,3,,-25.38,
5.938000,-73.5000,3,,-25.38,
5.948000,-78.8750,3,,-25.38,
5.958000,-77.3750,3,,-25.38,
5.968000,-72.1250,3,,-25.38,
5.978000,-77.6250,3,,-25.38,
5.988000,-72.0000,3,,-25.38,
5.998000,-77.7500,3,,-25.38,
6.008000,-74.5000,3,,-25.38,
6.018000,-72.7500,3,,-25.38,
6.028000,-79.2500,3,,-25.38,
6.038000,-79.2500,3,,-25.38,
6.048000,-78.6250,3,,-25.38,
6.058000,-78.6250,3,,-25.38,
6.068000,-73.8750,3,,-25.38,
6.078000,-76.0000,3,,-25.38,
6.088000,-78.7500,3,,-25.38,
6.098000,-76.7500,3,,-25.38,
6.108000,-75.2500,3,,-25.38,
6.118000,-78.7500,3,,-25.38,
6.128000,-76.1250,3,,-25.38,
6.138000,-77.3750,3,,-25.38,
6.148000,-76.5000,3,,-25.38,
6.158000,-80.7500,3,,-25.38,
6.168000,-78.2500,3,,-25.38,
6.178000,-77.8750,3,,-25.38,
6.188000,-81.7500,3,,-25.38,
6.198000,-77.7500,3,,-25.38,
6.208000,-78.7500,3,,-25.38,
6.218000,-75.6250,3,,-25.38,
6.228000,-79.2500,3,,-25.38,
6.238000,-79.3750,3,,-25.38,
6.248000,-76.3750,3,,-25.38,
6.258000,-79.1250,3,,-25.38,
6.268000,-78.5000,3,,-25.38,
6.278000,-84.8750,3,,-25.38,
6.288000,-79.1250,3,,-25.38,
6.298000,-81.3750,3,,-25.38,
6.308000,-77.3750,3,,-25.38,
6.318000,-80.5000,3,,-25.38,
6.328000,-83.3750,3,,-25.38,
6.338000,-82.2500,3,,-25.38,
6.348000,-76.0000,3,,-25.38,
6.358000,-75.7500,3,,-25.38,
6.368000,-74.3750,3,,-25.38,
6.378000,-74.6250,3,,-25.38,
6.388000,-75.5000,3,,-25.38,
6.398000,-77.8750,3,,-25.38,
6.408000,-76.6250,3,,-25.38,
6.418000,-80.7500,3,,-25.38,
6.428000,-71.7500,3,,-25.38,
6.438000,-75.1250,3,,-25.38,
6.448000,-78.5000,3,,-25.38,
6.458000,-80.5000,3,,-25.38,
6.468000,-73.1250,3,,-25.38,
6.478000,-74.3750,3,,-25.38,
6.488000,-80.0000,3,,-25.38,
6.498000,-71.3750,3,,-25.38,
6.508000,-73.3750,3,,-25.38,
6.518000,-70.1250,3,,-25.38,
6.528000,-79.7500,3,,-25.38,
6.538000,-75.5000,3,,-25.38,
6.548000,-74.1250,3,,-25.38,
6.558000,-72.7500,3,,-25.38,
6.568000,-67.7500,3,,-25.38,
6.578000,-79.0000,3,,-25.38,
6.588000,-75.8750,3,,-25.38,
6.598000,-75.3750,3,,-25.38,
6.608000,-77.2500,3,,-25.38,
6.618000,-72.5000,3,,-25.38,
6.628000,-78.2500,3,,-25.38,
6.638000,-83.2500,3,,-25.38,
6.648000,-73.8750,3,,-25.38,
6.658000,-78.7500,3,,-25.38,
6.668000,-77.0000,3,,-25.38,
6.678000,-70.3750,3,,-25.38,
6.688000,-73.8750,3,,-25.38,
6.698000,-73.7500,3,,-25.38,
6.708000,-78.1250,3,,-25.38,
6.718000,-75.2500,3,,-25.38,
6.728000,-77.0000,3,,-25.38,
6.738000,-73.6250,3,,-25.38,
6.748000,-77.7500,3,,-25.38,
6.758000,-81.7500,3,,-25.38,
6.768000,-79.7500,3,,-25.38,
6.778000,-80.6250,3,,-25.38,
6.788000,-78.6250,3,,-25.38,
6.798000,-71.6250,3,,-25.38,
6.808000,-79.7500,3,,-25.38,
6.818000,-81.3750,3,,-25.38,
6.828000,-78.5000,3,,-25.38,
6.838000,-86.7500,3,,-25.38,
6.848000,-79.1250,3,,-25.38,
6.858000,-72.2500,3,,-25.38,
6.868000,-76.0000,3,,-25.38,
6.878000,-76.5000,3,,-25.38,
6.888000,-78.8750,3,,-25.38,
6.898000,-80.2500,3,,-25.38,
6.908000,-74.0000,3,,-25.38,
6.918000,-79.8750,3,,-25.38,
6.928000,-77.5000,3,,-25.38,
6.938000,-84.2500,3,,-25.38,
6.948000,-79.7500,3,,-25.38,
6.958000,-77.6250,3,,-25.38,
6.968000,-76.5000,3,,-25.38,
6.978000,-76.8750,3,,-25.38,
6.988000,-80.3750,3,,-25.38,
6.998000,-76.5000,3,,-25.38,
7.008000,-77.6250,3,,-25.38,
7.018000,-80.8750,3,,-25.38,
7.028000,-77.6250,3,,-25.38,
7.038000,-82.8750,3,,-25.38,
7.048000,-78.0000,3,,-25.38,
7.058000,-76.0000,3,,-25.38,
7.068000,-79.5000,3,,-25.38,
7.078000,-69.0000,3,,-25.38,
7.088000,-74.1250,3,,-25.38,
7.098000,-85.5000,3,,-25.38,
7.108000,-83.0000,3,,-25.38,
7.118000,-76.1250,3,,-25.38,
7.128000,-81.1250,3,,-25.38,
7.138000,-77.3750,3,,-25.38,
7.148000,-85.5000,3,,-25.38,
7.158000,-73.7500,3,,-25.38,
7.168000,-69.5000,3,,-25.38,
7.178000,-76.7500,3,,-25.38,
7.188000,-80.3750,3,,-25.38,
7.198000,-72.6250,3,,-25.38,
7.208000,-84.7500,3,,-25.38,
7.218000,-72.7500,3,,-25.38,
7.228000,-66.5000,3,,-25.38,
7.238000,-87.1250,3,,-25.38,
7.248000,-82.7500,3,,-25.38,
7.258000,-73.3750,3,,-25.38,
7.268000,-76.7500,3,,-25.38,
7.278000,-77.5000,3,,-25.38,
7.288000,-83.0000,3,,-25.38,
7.298000,-73.6250,3,,-25.38,
7.308000,-76.5000,3,,-25.38,
7.318000,-76.0000,3,,-25.38,
7.328000,-87.0000,3,,-25.38,
7.338000,-72.3750,3,,-25.38,
7.348000,-73.0000,3,,-25.38,
7.358000,-70.7500,3,,-25.38,
7.368000,-67.7500,3,,-25.38,
7.378000,-82.3750,3,,-25.38,
7.388000,-72.8750,3,,-25.38,
7.398000,-64.1250,3,,-25.38,
7.408000,-79.2500,3,,-25.38,
7.418000,-62.2500,3,,-25.38,
7.428000,-73.2500,3,,-25.38,
7.438000,-74.6250,3,,-25.38,
7.448000,-76.8750,3,,-25.38,
7.458000,-81.0000,3,,-25.38,
7.468000,-78.7500,3,,-25.38,
7.478000,-77.8750,3,,-25.38,
7.488000,-76.2500,3,,-25.38,
7.498000,-78.0000,3,,-25.38,
7.508000,-81.3750,3,,-25.38,
7.518000,-77.3750,3,,-25.38,
7.528000,-72.5000,3,,-25.38,
7.538000,-75.5000,3,,-25.38,
7.548000,-80.6250,3,,-25.38,
7.558000,-77.8750,3,,-25.38,
7.568000,-67.6250,3,,-25.38,
7.578000,-78.1250,3,,-25.38,
7.588000,-70.7500,3,,-25.38,
7.598000,-75.7500,3,,-25.38,
7.608000,-75.6250,3,,-25.38,
7.618000,-68.6250,3,,-25.38,
7.628000,-74.6250,3,,-25.38,
7.638000,-77.3750,3,,-25.38,
7.648000,-79.3750,3,,-25.38,
7.658000,-77.7500,3,,-25.38,
7.668000,-72.8750,3,,-25.38,
7.678000,-73.7500,3,,-25.38,
7.688000,-77.1250,3,,-25.38,
7.698000,-72.0000,3,,-25.38,
7.708000,-83.3750,3,,-25.38,
7.718000,-75.1250,3,,-25.38,
7.728000,-68.7500,3,,-25.38,
7.738000,-68.7500,3,,-25.38,
7.748000,-73.2500,3,,-25.38,
7.758000,-80.2500,3,,-25.38,
7.768000,-79.0000,3,,-25.38,
7.778000,-72.7500,3,,-25.38,
7.788000,-78.5000,3,,-25.38,
7.798000,-76.6250,3,,-25.38,
7.808000,-73.3750,3,,-25.38,
7.818000,-67.8750,3,,-25.38,
7.828000,-78.2500,3,,-25.38,
7.838000,-74.6250,3,,-25.38,
7.848000,-76.0000,3,,-25.38,
7.858000,-74.5000,3,,-25.38,
7.868000,-79.5000,3,,-25.38,
7.878000,-78.3750,3,,-25.38,
7.888000,-70.2500,3,,-25.38,
7.898000,-76.3750,3,,-25.38,
7.908000,-89.1250,3,,-25.38,
7.918000,-77.6250,3,,-25.38,
7.928000,-61.8750,3,,-25.38,
7.938000,-80.1250,3,,-25.38,
7.948000,-56.0000,3,,-25.38,
7.958000,-73.2500,3,,-25.38,
7.968000,-77.1250,3,,-25.38,
7.978000,-63.8750,3,,-25.38,
7.988000,-75.6250,3,,-25.38,
7.998000,-57.3750,3,,-25.38,
8.008000,-72.8750,3,,-25.38,
8.018000,-69.7500,3,,-25.38,
8.028000,-56.0000,3,,-25.38,
8.038000,-72.7500,3,,-25.38,
8.048000,-75.7500,3,,-25.38,
8.058000,-59.2500,3,,-25.38,
8.068000,-72.6250,3,,-25.38,
8.078000,-62.0000,3,,-25.38,
8.088000,-76.2500,3,,-25.38,
8.098000,-73.8750,3,,-25.38,
8.108000,-55.6250,3,,-25.38,
8.118000,-75.5000,3,,-25.38,
8.128000,-85.1250,3,,-25.38,
8.138000,-63.0000,3,,-25.38,
8.148000,-91.0000,3,,-25.38,
8.158000,-79.6250,3,,-25.38,
8.168000,-79.0000,3,,-25.38,
8.178000,-68.0000,3,,-25.38,
8.188000,-57.6250,3,,-25.38,
8.198000,-77.2500,3,,-25.38,
8.208000,-68.7500,3,,-25.38,
8.218000,-68.3750,3,,-25.38,
8.228000,-64.5000,3,,-25.38,
8.238000,-57.0000,3,,-25.38,
8.248000,-87.1250,3,,-25.38,
8.258000,-45.6250,3,,-25.38,
8.268000,-71.0000,3,,-25.38,
8.278000,-67.1250,3,,-25.38,
8.288000,-60.8750,3,,-25.38,
8.298000,-70.0000,3,,-25.38,
8.308000,-75.7500,3,,-25.38,
8.318000,-65.8750,3,,-25.38,
8.328000,-65.7500,3,,-25.38,
8.338000,-69.6250,3,,-25.38,
8.348000,-69.6250,3,,-25.38,
8.358000,-56.0000,3,,-25.38,
8.368000,-73.3750,3,,-25.38,
8.378000,-65.3750,3,,-25.38,
8.388000,-73.3750,3,,-25.38,
8.398000,-82.3750,3,,-25.38,
8.408000,-73.0000,3,,-25.38,
8.418000,-73.8750,3,,-25.38,
8.428000,-63.8750,3,,-25.38,
8.438000,-64.1250,3,,-25.38,
8.448000,-46.8750,3,,-25.38,
8.458000,-58.8750,3,,-25.38,
8.468000,-91.0000,3,,-25.38,
8.478000,-60.5000,3,,-25.38,
8.488000,-35.3750,3,,-25.38,
8.498000,-71.5000,3,,-25.38,
8.508000,-68.0000,3,,-25.38,
8.518000,-84.8750,3,,-25.38,
8.528000,-70.5000,3,,-25.38,
8.538000,-87.3750,3,,-25.38,
8.548000,-28.2500,3,,-25.38,
8.558000,-46.0000,3,,-25.38,
8.568000,-85.7500,3,,-25.38,
8.578000,-38.8750,3,,-25.38,
8.588000,-55.2500,3,,-25.38,
8.598000,-47.6250,3,,-25.38,
8.608000,-67.5000,3,,-25.38,
8.618000,-57.1250,3,,-25.38,
8.628000,-68.3750,3,,-25.38,
8.638000,-55.3750,3,,-25.38,
8.648000,-68.5000,3,,-25.38,
8.658000,-29.6250,3,,-25.38,
8.668000,-77.3750,3,,-25.38,
8.678000,-73.5000,3,,-25.38,
8.688000,-69.3750,3,,-25.38,
8.698000,-58.1250,3,,-25.38,
8.708000,-70.6250,3,,-25.38,
8.718000,-44.2500,3,,-25.38,
8.728000,-76.3750,3,,-25.38,
8.738000,-34.1250,3,,-25.38,
8.748000,-70.6250,3,,-25.38,
8.758000,-81.5000,3,,-25.38,
8.768000,-82.5000,3,,-25.38,
8.778000,-90.8750,5,122.45,-23.74,11.56
8.788000,-89.6250,5,122.45,-23.74,11.56
8.798000,-88.3750,5,122.45,-23.74,11.56
8.808000,-75.0000,5,122.45,-23.74,11.56
8.818000,-70.8750,5,122.45,-23.74,11.56
8.828000,-82.6250,5,122.45,-23.74,11.56
8.838000,-87.5000,5,122.45,-23.74,11.56
8.848000,-65.8750,5,122.45,-23.74,11.56
8.858000,-61.6250,5,122.45,-23.74,11.56
8.868000,-71.3750,5,122.45,-23.74,11.56
8.878000,-83.3750,5,122.45,-23.74,11.56
8.888000,-67.6250,5,122.45,-23.74,11.56
8.898000,-83.2500,5,122.45,-23.74,11.56
8.908000,-69.0000,5,122.45,-23.74,11.56
8.918000,-56.3750,5,122.45,-23.74,11.56
8.928000,-20.5000,5,122.45,-23.74,11.56
8.938000,-56.8750,5,122.45,-23.74,11.56
8.948000,-39.3750,5,122.45,-23.74,11.56
8.958000,-48.6250,5,122.45,-23.74,11.56
8.968000,-10.8750,5,122.45,-23.74,11.56
8.978000,-45.3750,5,122.45,-23.74,11.56
8.988000,-48.7500,5,122.45,-23.74,11.56
8.998000,-53.8750,5,122.45,-23.74,11.56
9.008000,-38.7500,5,122.45,-23.74,11.56
9.018000,-29.0000,5,122.45,-23.74,11.56
9.028000,-57.8750,5,122.45,-23.74,11.56
9.038000,-27.6250,5,122.45,-23.74,11.56
9.048000,-60.6250,5,122.45,-23.74,11.56
9.058000,-57.6250,5,122.45,-23.74,11.56
9.068000,-72.6250,5,122.45,-23.74,11.56
9.078000,-24.5000,5,122.45,-23.74,11.56
9.088000,-49.3750,5,122.45,-23.74,11.56
9.098000,-32.6250,5,122.45,-23.74,11.56
9.108000,-58.1250,5,122.45,-23.74,11.56
9.118000,-41.6250,5,122.45,-23.74,11.56
9.128000,-15.5000,5,122.45,-23.74,11.56
9.138000,-60.2500,5,122.45,-23.74,11.56
9.148000,-13.5000,5,122.45,-23.74,11.56
9.158000,-56.1250,5,122.45,-23.74,11.56
9.168000,-57.6250,5,122.45,-23.74,11.56
9.178000,-60.6250,5,122.45,-23.74,11.56
9.188000,-66.7500,5,122.45,-23.74,11.56
9.198000,-31.8750,5,122.45,-23.74,11.56
9.208000,-88.0000,5,122.45,-23.74,11.56
9.218000,-33.2500,5,122.45,-23.74,11.56
9.228000,-66.2500,5,122.45,-23.74,11.56
9.238000,-36.5000,5,122.45,-23.74,11.56
9.248000,-24.2500,5,122.45,-23.74,11.56
9.258000,-38.0000,5,122.45,-23.74,11.56
9.268000,-25.1250,5,122.45,-23.74,11.56
9.278000,-40.7500,5,122.45,-23.74,11.56
9.288000,-22.3750,5,122.45,-23.74,11.56
9.298000,-87.1250,5,122.45,-23.74,11.56
9.308000,-21.1250,5,122.45,-23.74,11.56
9.318000,-86.0000,5,122.45,-23.74,11.56
9.328000,-21.2500,5,122.45,-23.74,11.56
9.338000,-67.7500,5,122.45,-23.74,11.56
9.348000,-30.0000,5,122.45,-23.74,11.56
9.358000,-62.1250,5,122.45,-23.74,11.56
9.368000,-45.5000,5,122.45,-23.74,11.56
9.378000,-58.1250,5,122.45,-23.74,11.56
9.388000,-43.0000,5,122.45,-23.74,11.56
9.398000,-91.0000,5,122.45,-23.74,11.56
9.408000,-43.2500,5,122.45,-23.74,11.56
9.418000,-82.7500,5,122.45,-23.74,11.56
9.428000,-34.6250,5,122.45,-23.74,11.56
9.438000,-92.3750,5,122.45,-23.74,11.56
9.448000,-40.1250,5,122.45,-23.74,11.56
9.458000,-87.1250,5,122.45,-23.74,11.56
9.468000,-49.0000,5,122.45,-23.74,11.56
9.478000,-76.2500,5,122.45,-23.74,11.56
9.488000,-40.3750,5,122.45,-23.74,11.56
9.498000,-77.5000,5,122.45,-23.74,11.56
9.508000,-37.0000,5,122.45,-23.74,11.56
9.518000,-69.5000,5,122.45,-23.74,11.56
9.528000,-43.1250,5,122.45,-23.74,11.56
9.538000,-65.8750,5,122.45,-23.74,11.56
9.548000,-100.0000,5,122.45,-23.74,11.56
9.558000,-64.0000,5,122.45,-23.74,11.56
9.568000,-95.3750,5,122.45,-23.74,11.56
9.578000,-82.8750,5,122.45,-23.74,11.56
9.588000,-76.1250,5,122.45,-23.74,11.56
9.598000,-70.5000,5,122.45,-23.74,11.56
9.608000,-68.2500,5,122.45,-23.74,11.56
9.618000,-83.8750,5,122.45,-23.74,11.56
9.628000,-73.8750,5,122.45,-23.74,11.56
9.638000,-64.0000,5,122.45,-23.74,11.56
9.648000,-69.1250,5,122.45,-23.74,11.56
9.658000,-89.8750,5,122.45,-23.74,11.56
9.668000,-38.5000,5,122.45,-23.74,11.56
9.678000,-55.5000,5,122.45,-23.74,11.56
9.688000,-40.7500,5,122.45,-23.74,11.56
9.698000,-58.2500,5,122.45,-23.74,11.56
9.708000,-66.6250,5,122.45,-23.74,11.56
9.718000,-81.5000,5,122.45,-23.74,11.56
9.728000,-22.7500,5,122.45,-23.74,11.56
9.738000,-87.7500,5,122.45,-23.74,11.56
9.748000,-94.5000,5,122.45,-23.74,11.56
9.758000,-50.7500,5,122.45,-23.74,11.56
9.768000,-34.5000,5,122.45,-23.74,11.56
9.778000,-43.1250,5,122.45,-23.74,11.56
9.788000,-30.7500,5,122.45,-23.74,11.56
9.798000,-55.7500,5,122.45,-23.74,11.56
9.808000,-28.1250,5,122.45,-23.74,11.56
9.818000,-18.8750,5,122.45,-23.74,11.56
9.828000,-19.5000,5,122.45,-23.74,11.56
9.838000,-21.8750,5,122.45,-23.74,11.56
9.848000,-13.6250,5,122.45,-23.74,11.56
9.858000,-60.3750,5,122.45,-23.74,11.56
9.868000,-58.7500,5,122.45,-23.74,11.56
9.878000,-10.1250,5,122.45,-23.74,11.56
9.888000,-59.1250,5,122.45,-23.74,11.56
9.898000,-69.0000,5,122.45,-23.74,11.56
9.908000,-58.6250,5,122.45,-23.74,11.56
9.918000,-19.7500,5,122.45,-23.74,11.56
9.928000,-45.2500,5,122.45,-23.74,11.56
9.938000,-19.1250,5,122.45,-23.74,11.56
9.948000,-84.3750,5,122.45,-23.74,11.56
9.958000,-17.5000,5,122.45,-23.74,11.56
9.968000,-67.6250,5,122.45,-23.74,11.56
9.978000,-22.1250,5,122.45,-23.74,11.56
9.988000,-74.1250,5,122.45,-23.74,11.56
9.998000,-19.0000,5,122.45,-23.74,11.56
10.008000,-53.5000,5,122.45,-23.74,11.56
10.018000,-107.3750,5,122.45,-23.74,11.56
10.028000,-45.1250,5,122.45,-23.74,11.56
10.038000,-90.8750,5,122.45,-23.74,11.56
10.048000,-51.0000,5,122.45,-23.74,11.56
10.058000,-97.1250,5,122.45,-23.74,11.56
10.068000,-64.1250,5,122.45,-23.74,11.56
10.078000,-89.6250,5,122.45,-23.74,11.56
10.088000,-73.8750,5,122.45,-23.74,11.56
10.098000,-85.2500,5,122.45,-23.74,11.56
10.108000,-72.1250,5,122.45,-23.74,11.56
10.118000,-28.8750,5,122.45,-23.74,11.56
10.128000,-70.0000,5,122.45,-23.74,11.56
10.138000,-35.5000,5,122.45,-23.74,11.56
10.148000,-73.2500,5,122.45,-23.74,11.56
10.158000,-40.7500,5,122.45,-23.74,11.56
10.168000,-66.7500,5,122.45,-23.74,11.56
10.178000,-41.1250,5,122.45,-23.74,11.56
10.188000,-71.7500,5,122.45,-23.74,11.56
10.198000,-39.0000,5,122.45,-23.74,11.56
10.208000,-71.0000,5,122.45,-23.74,11.56
10.218000,-55.0000,5,122.45,-23.74,11.56
10.228000,-77.6250,5,122.45,-23.74,11.56
10.238000,-53.2500,5,122.45,-23.74,11.56
10.248000,-76.5000,5,122.45,-23.74,11.56
10.258000,-46.3750,5,122.45,-23.74,11.56
10.268000,-40.3750,5,122.45,-23.74,11.56
10.278000,-79.7500,5,122.45,-23.74,11.56
10.288000,-53.7500,5,122.45,-23.74,11.56
10.298000,-57.7500,5,122.45,-23.74,11.56
10.308000,-38.1250,5,122.45,-23.74,11.56
10.318000,-72.6250,5,122.45,-23.74,11.56
10.328000,-48.7500,5,122.45,-23.74,11.56
10.338000,-74.1250,5,122.45,-23.74,11.56
10.348000,-44.0000,5,122.45,-23.74,11.56
10.358000,-61.8750,5,122.45,-23.74,11.56
10.368000,-76.5000,5,122.45,-23.74,11.56
10.378000,-75.8750,5,122.45,-23.74,11.56
10.388000,-82.8750,5,122.45,-23.74,11.56
10.398000,-74.6250,5,122.45,-23.74,11.56
10.408000,-64.3750,5,122.45,-23.74,11.56
10.418000,-56.2500,5,122.45,-23.74,11.56
10.428000,-74.5000,5,122.45,-23.74,11.56
10.438000,-82.7500,5,122.45,-23.74,11.56
10.448000,-82.2500,5,122.45,-23.74,11.56
10.458000,-88.3750,5,122.45,-23.74,11.56
10.468000,-64.5000,5,122.45,-23.74,11.56
10.478000,-28.8750,5,122.45,-23.74,11.56
10.488000,-45.2500,5,122.45,-23.74,11.56
10.498000,-30.6250,5,122.45,-23.74,11.56
10.508000,-50.2500,5,122.45,-23.74,11.56
10.518000,-27.8750,5,122.45,-23.74,11.56
10.528000,-44.5000,5,122.45,-23.74,11.56
10.538000,-35.7500,5,122.45,-23.74,11.56
10.548000,-26.5000,5,122.45,-23.74,11.56
10.558000,-66.8750,5,122.45,-23.74,11.56
10.568000,-80.2500,5,122.45,-23.74,11.56
10.578000,-46.8750,5,122.45,-23.74,11.56
10.588000,-16.7500,5,122.45,-23.74,11.56
10.598000,-50.2500,5,122.45,-23.74,11.56
10.608000,-16.7500,5,122.45,-23.74,11.56
10.618000,-75.8750,5,122.45,-23.74,11.56
10.628000,-58.6250,5,122.45,-23.74,11.56
10.638000,-25.2500,5,122.45,-23.74,11.56
10.648000,-73.8750,5,122.45,-23.74,11.56
10.658000,-17.5000,5,122.45,-23.74,11.56
10.668000,-11.6250,5,122.45,-23.74,11.56
10.678000,-22.7500,5,122.45,-23.74,11.56
10.688000,-71.6250,5,122.45,-23.74,11.56
10.698000,-67.5000,5,122.45,-23.74,11.56
10.708000,-52.2500,5,122.45,-23.74,11.56
10.718000,-34.3750,5,122.45,-23.74,11.56
10.728000,-51.6250,5,122.45,-23.74,11.56
10.738000,-41.5000,5,122.45,-23.74,11.56
10.748000,-58.5000,5,122.45,-23.74,11.56
10.758000,-30.7500,5,122.45,-23.74,11.56
10.768000,-79.6250,5,122.45,-23.74,11.56
10.778000,-77.0000,5,122.45,-23.74,11.56
10.788000,-63.0000,5,122.45,-23.74,11.56
10.798000,-73.0000,5,122.45,-23.74,11.56
10.808000,-40.6250,5,122.45,-23.74,11.56
10.818000,-76.3750,5,122.45,-23.74,11.56
10.828000,-38.6250,5,122.45,-23.74,11.56
10.838000,-41.2500,5,122.45,-23.74,11.56
10.848000,-48.8750,5,122.45,-23.74,11.56
10.858000,-110.0000,5,122.45,-23.74,11.56
10.868000,-41.7500,5,122.45,-23.74,11.56
10.878000,-39.7500,5,122.45,-23.74,11.56
10.888000,-84.1250,5,122.45,-23.74,11.56
10.898000,-23.1250,5,122.45,-23.74,11.56
10.908000,-32.3750,5,122.45,-23.74,11.56
10.918000,-66.5000,5,122.45,-23.74,11.56
10.928000,-104.8750,5,122.45,-23.74,11.56
10.938000,-59.0000,5,122.45,-23.74,11.56
10.948000,-99.8750,5,122.45,-23.74,11.56
10.958000,-71.1250,5,122.45,-23.74,11.56
10.968000,-107.6250,5,122.45,-23.74,11.56
10.978000,-126.6250,5,122.45,-23.74,11.56
10.988000,-62.0000,5,122.45,-23.74,11.56
10.998000,-11.5000,5,122.45,-23.74,11.56
11.008000,-70.8750,5,122.45,-23.74,11.56
11.018000,-9.8750,5,122.45,-23.74,11.56
11.028000,-56.7500,5,122.45,-23.74,11.56
11.038000,-7.5000,5,122.45,-23.74,11.56
11.048000,-108.7500,5,122.45,-23.74,11.56
11.058000,-9.3750,5,122.45,-23.74,11.56
11.068000,-86.2500,5,122.45,-23.74,11.56
11.078000,-11.6250,5,122.45,-23.74,11.56
11.088000,-75.2500,5,122.45,-23.74,11.56
11.098000,-11.3750,5,122.45,-23.74,11.56
11.108000,-71.7500,5,122.45,-23.74,11.56
11.118000,-87.2500,5,122.45,-23.74,11.56
11.128000,-98.0000,5,122.45,-23.74,11.56
11.138000,-54.1250,5,122.45,-23.74,11.56
11.148000,-86.8750,5,122.45,-23.74,11.56
11.158000,-71.2500,5,122.45,-23.74,11.56
11.168000,-29.5000,5,122.45,-23.74,11.56
11.178000,-68.6250,5,122.45,-23.74,11.56
11.188000,-75.7500,5,122.45,-23.74,11.56
11.198000,-26.0000,5,122.45,-23.74,11.56
11.208000,-28.8750,5,122.45,-23.74,11.56
11.218000,-28.5000,5,122.45,-23.74,11.56
11.228000,-110.0000,5,122.45,-23.74,11.56
11.238000,-119.0000,5,122.45,-23.74,11.56
11.248000,-111.8750,5,122.45,-23.74,11.56
11.258000,-62.2500,5,122.45,-23.74,11.56
11.268000,-36.8750,5,122.45,-23.74,11.56
11.278000,-16.8750,5,122.45,-23.74,11.56
11.288000,-14.6250,5,122.45,-23.74,11.56
11.298000,-37.3750,5,122.45,-23.74,11.56
11.308000,-76.3750,5,122.45,-23.74,11.56
11.318000,-58.2500,5,122.45,-23.74,11.56
11.328000,-105.3750,5,122.45,-23.74,11.56
11.338000,-96.2500,5,122.45,-23.74,11.56
11.348000,-10.6250,5,122.45,-23.74,11.56
11.358000,-11.1250,5,122.45,-23.74,11.56
11.368000,-19.5000,5,122.45,-23.74,11.56
11.378000,-75.6250,5,122.45,-23.74,11.56
11.388000,-86.6250,5,122.45,-23.74,11.56
11.398000,-96.6250,5,122.45,-23.74,11.56
11.408000,-100.2500,5,122.45,-23.74,11.56
11.418000,-83.2500,5,122.45,-23.74,11.56
11.428000,-102.2500,5,122.45,-23.74,11.56
11.438000,-36.2500,5,122.45,-23.74,11.56
11.448000,-92.0000,5,122.45,-23.74,11.56
11.458000,-105.5000,5,122.45,-23.74,11.56
11.468000,-63.1250,5,122.45,-23.74,11.56
11.478000,-69.1250,5,122.45,-23.74,11.56
11.488000,-85.3750,5,122.45,-23.74,11.56
11.498000,-60.8750,5,122.45,-23.74,11.56
11.508000,-104.5000,5,122.45,-23.74,11.56
11.518000,-58.6250,5,122.45,-23.74,11.56
11.528000,-93.0000,5,122.45,-23.74,11.56
11.538000,-34.7500,5,122.45,-23.74,11.56
11.548000,-60.1250,5,122.45,-23.74,11.56
11.558000,-102.0000,5,122.45,-23.74,11.56
11.568000,-58.8750,5,122.45,-23.74,11.56
11.578000,-86.0000,5,122.45,-23.74,11.56
11.588000,-17.5000,5,122.45,-23.74,11.56
11.598000,-75.2500,5,122.45,-23.74,11.56
11.608000,-96.0000,5,122.45,-23.74,11.56
11.618000,-78.7500,5,122.45,-23.74,11.56
11.628000,-88.0000,5,122.45,-23.74,11.56
11.638000,-99.0000,5,122.45,-23.74,11.56
11.648000,-71.8750,5,122.45,-23.74,11.56
11.658000,-91.8750,5,122.45,-23.74,11.56
11.668000,-105.6250,5,122.45,-23.74,11.56
11.678000,-93.5000,5,122.45,-23.74,11.56
11.688000,-101.1250,5,122.45,-23.74,11.56
11.698000,-95.1250,5,122.45,-23.74,11.56
11.708000,-7.0000,5,122.45,-23.74,11.56
11.718000,-54.8750,5,122.45,-23.74,11.56
11.728000,-12.8750,5,122.45,-23.74,11.56
11.738000,-68.7500,5,122.45,-23.74,11.56
11.748000,-88.5000,5,122.45,-23.74,11.56
11.758000,-24.0000,5,122.45,-23.74,11.56
11.768000,-95.6250,5,122.45,-23.74,11.56
11.778000,-100.1250,5,122.45,-23.74,11.56
11.788000,-80.0000,5,122.45,-23.74,11.56
11.798000,-95.3750,5,122.45,-23.74,11.56
11.808000,-83.7500,5,122.45,-23.74,11.56
11.818000,-53.1250,5,122.45,-23.74,11.56
11.828000,-94.2500,5,122.45,-23.74,11.56
11.838000,-94.7500,5,122.45,-23.74,11.56
11.848000,-116.7500,5,122.45,-23.74,11.56
11.858000,-96.8750,5,122.45,-23.74,11.56
11.868000,-117.8750,5,122.45,-23.74,11.56
11.878000,-90.3750,5,122.45,-23.74,11.56
11.888000,-41.7500,5,122.45,-23.74,11.56
11.898000,-91.5000,5,122.45,-23.74,11.56
11.908000,-99.2500,5,122.45,-23.74,11.56
11.918000,-95.7500,5,122.45,-23.74,11.56
11.928000,-82.8750,5,122.45,-23.74,11.56
11.938000,-80.1250,5,122.45,-23.74,11.56
11.948000,-104.1250,5,122.45,-23.74,11.56
11.958000,-109.8750,5,122.45,-23.74,11.56
11.968000,-95.5000,5,122.45,-23.74,11.56
11.978000,-29.6250,5,122.45,-23.74,11.56
11.988000,-101.2500,5,122.45,-23.74,11.56
11.998000,-70.6250,5,122.45,-23.74,11.56
12.008000,-114.3750,5,122.45,-23.74,11.56
12.018000,-101.0000,5,122.45,-23.74,11.56
12.028000,-106.5000,5,122.45,-23.74,11.56
12.038000,-101.2500,5,122.45,-23.74,11.56
12.048000,-81.1250,5,122.45,-23.74,11.56
12.058000,-96.6250,5,122.45,-23.74,11.56
12.068000,-81.8750,5,122.45,-23.74,11.56
12.078000,-89.8750,5,122.45,-23.74,11.56
12.088000,-106.8750,5,122.45,-23.74,11.56
12.098000,-94.3750,5,122.45,-23.74,11.56
12.108000,-65.2500,5,122.45,-23.74,11.56
12.118000,-86.5000,5,122.45,-23.74,11.56
12.128000,-95.6250,5,122.45,-23.74,11.56
12.138000,-68.0000,5,122.45,-23.74,11.56
12.148000,-47.8750,5,122.45,-23.74,11.56
12.158000,-13.1250,5,122.45,-23.74,11.56
12.168000,-37.6250,5,122.45,-23.74,11.56
12.178000,-93.6250,5,122.45,-23.74,11.56
12.188000,-27.0000,5,122.45,-23.74,11.56
12.198000,-83.6250,5,122.45,-23.74,11.56
12.208000,-21.1250,5,122.45,-23.74,11.56
12.218000,-66.7500,5,122.45,-23.74,11.56
12.228000,-97.0000,5,122.45,-23.74,11.56
12.238000,-42.6250,5,122.45,-23.74,11.56
12.248000,-117.6250,5,122.45,-23.74,11.56
12.258000,-94.7500,5,122.45,-23.74,11.56
12.268000,-114.1250,5,122.45,-23.74,11.56
12.278000,-100.2500,5,122.45,-23.74,11.56
12.288000,-120.1250,5,122.45,-23.74,11.56
12.298000,-27.7500,5,122.45,-23.74,11.56
12.308000,-44.8750,5,122.45,-23.74,11.56
12.318000,-110.6250,5,122.45,-23.74,11.56
12.328000,-110.2500,5,122.45,-23.74,11.56
12.338000,-101.1250,5,122.45,-23.74,11.56
12.348000,-103.2500,5,122.45,-23.74,11.56
12.358000,-112.5000,5,122.45,-23.74,11.56
12.368000,-95.8750,5,122.45,-23.74,11.56
12.378000,-100.7500,5,122.45,-23.74,11.56
12.388000,-69.7500,5,122.45,-23.74,11.56
12.398000,-58.8750,5,122.45,-23.74,11.56
12.408000,-51.6250,5,122.45,-23.74,11.56
12.418000,-60.7500,5,122.45,-23.74,11.56
12.428000,-52.8750,5,122.45,-23.74,11.56
12.438000,-73.0000,5,122.45,-23.74,11.56
12.448000,-114.7500,5,122.45,-23.74,11.56
12.458000,-104.3750,5,122.45,-23.74,11.56
12.468000,-97.6250,5,122.45,-23.74,11.56
12.478000,-93.1250,5,122.45,-23.74,11.56
12.488000,-80.0000,5,122.45,-23.74,11.56
12.498000,-111.3750,5,122.45,-23.74,11.56
12.508000,-81.1250,5,122.45,-23.74,11.56
12.518000,-78.1250,5,122.45,-23.74,11.56
12.528000,-104.3750,5,122.45,-23.74,11.56
12.538000,-92.7500,5,122.45,-23.74,11.56
12.548000,-90.2500,5,122.45,-23.74,11.56
12.558000,-95.6250,5,122.45,-23.74,11.56
12.568000,-87.6250,5,122.45,-23.74,11.56
12.578000,-87.7500,5,122.45,-23.74,11.56
12.588000,-95.0000,5,122.45,-23.74,11.56
12.598000,-97.6250,5,122.45,-23.74,11.56
12.608000,-121.8750,5,122.45,-23.74,11.56
12.618000,-135.7500,5,122.45,-23.74,11.56
12.628000,-120.8750,5,122.45,-23.74,11.56
12.638000,-123.2500,5,122.45,-23.74,11.56
12.648000,-87.7500,5,122.45,-23.74,11.56
12.658000,-128.0000,5,122.45,-23.74,11.56
12.668000,-98.6250,5,122.45,-23.74,11.56
12.678000,-99.0000,5,122.45,-23.74,11.56
12.688000,-74.7500,5,122.45,-23.74,11.56
12.698000,-90.2500,5,122.45,-23.74,11.56
12.708000,-100.7500,5,122.45,-23.74,11.56
12.718000,-81.6250,5,122.45,-23.74,11.56
12.728000,-92.2500,5,122.45,-23.74,11.56
12.738000,-88.7500,5,122.45,-23.74,11.56
12.748000,-95.8750,5,122.45,-23.74,11.56
12.758000,-95.7500,5,122.45,-23.74,11.56
12.768000,-94.1250,5,122.45,-23.74,11.56
12.778000,-93.8750,5,122.45,-23.74,11.56
12.788000,-95.7500,5,122.45,-23.74,11.56
12.798000,-95.1250,5,122.45,-23.74,11.56
12.808000,-103.1250,5,122.45,-23.74,11.56
12.818000,-102.8750,5,122.45,-23.74,11.56
12.828000,-83.5000,5,122.45,-23.74,11.56
12.838000,-99.0000,5,122.45,-23.74,11.56
12.848000,-102.8750,5,122.45,-23.74,11.56
12.858000,-97.3750,5,122.45,-23.74,11.56
12.868000,-94.5000,5,122.45,-23.74,11.56
12.878000,-84.8750,5,122.45,-23.74,11.56
12.888000,-81.8750,5,122.45,-23.74,11.56
12.898000,-86.7500,5,122.45,-23.74,11.56
12.908000,-70.7500,5,122.45,-23.74,11.56
12.918000,-89.8750,5,122.45,-23.74,11.56
12.928000,-65.8750,5,122.45,-23.74,11.56
12.938000,-93.8750,5,122.45,-23.74,11.56
12.948000,-97.0000,5,122.45,-23.74,11.56
12.958000,-25.8750,5,122.45,-23.74,11.56
12.968000,-52.0000,5,122.45,-23.74,11.56
12.978000,-29.5000,5,122.45,-23.74,11.56
12.988000,-79.8750,5,122.45,-23.74,11.56
12.998000,-36.7500,5,122.45,-23.74,11.56
13.008000,-82.5000,5,122.45,-23.74,11.56
13.018000,-96.1250,5,122.45,-23.74,11.56
13.028000,-81.3750,5,122.45,-23.74,11.56
13.038000,-97.8750,5,122.45,-23.74,11.56
13.048000,-76.7500,5,122.45,-23.74,11.56
13.058000,-102.7500,5,122.45,-23.74,11.56
13.068000,-85.3750,5,122.45,-23.74,11.56
13.078000,-92.0000,5,122.45,-23.74,11.56
13.088000,-105.7500,5,122.45,-23.74,11.56
13.098000,-105.0000,5,122.45,-23.74,11.56
13.108000,-96.8750,5,122.45,-23.74,11.56
13.118000,-103.2500,5,122.45,-23.74,11.56
13.128000,-100.5000,5,122.45,-23.74,11.56
13.138000,-92.0000,5,122.45,-23.74,11.56
13.148000,-104.3750,5,122.45,-23.74,11.56
13.158000,-93.2500,7,121.29,-14.32,1.33
13.168000,-91.6250,7,121.29,-14.32,1.33
13.178000,-90.3750,7,121.29,-14.32,1.33
13.188000,-84.5000,7,121.29,-14.32,1.33
13.198000,-89.3750,7,121.29,-14.32,1.33
13.208000,-99.7500,7,121.29,-14.32,1.33
13.218000,-102.7500,7,121.29,-14.32,1.33
13.228000,-101.8750,7,121.29,-14.32,1.33
13.238000,-89.0000,7,121.29,-14.32,1.33
13.248000,-90.5000,7,121.29,-14.32,1.33
13.258000,-96.8750,7,121.29,-14.32,1.33
13.268000,-96.8750,7,121.29,-14.32,1.33
13.278000,-90.8750,7,121.29,-14.32,1.33
13.288000,-102.7500,7,121.29,-14.32,1.33
13.298000,-84.8750,7,121.29,-14.32,1.33
13.308000,-96.7500,7,121.29,-14.32,1.33
13.318000,-96.1250,7,121.29,-14.32,1.33
13.328000,-90.3750,7,121.29,-14.32,1.33
13.338000,-101.2500,7,121.29,-14.32,1.33
13.348000,-84.6250,7,121.29,-14.32,1.33
13.358000,-104.6250,7,121.29,-14.32,1.33
13.368000,-83.0000,7,121.29,-14.32,1.33
13.378000,-80.7500,7,121.29,-14.32,1.33
13.388000,-100.0000,7,121.29,-14.32,1.33
13.398000,-100.6250,7,121.29,-14.32,1.33
13.408000,-91.8750,7,121.29,-14.32,1.33
13.418000,-100.1250,7,121.29,-14.32,1.33
13.428000,-88.1250,7,121.29,-14.32,1.33
13.438000,-92.3750,7,121.29,-14.32,1.33
13.448000,-90.5000,7,121.29,-14.32,1.33
13.458000,-95.7500,7,121.29,-14.32,1.33
13.468000,-91.7500,7,121.29,-14.32,1.33
13.478000,-89.8750,7,121.29,-14.32,1.33
13.488000,-93.3750,7,121.29,-14.32,1.33
13.498000,-84.0000,7,121.29,-14.32,1.33
13.508000,-97.6250,7,121.29,-14.32,1.33
13.518000,-96.6250,7,121.29,-14.32,1.33
13.528000,-96.3750,7,121.29,-14.32,1.33
13.538000,-98.2500,7,121.29,-14.32,1.33
13.548000,-92.7500,7,121.29,-14.32,1.33
13.558000,-102.0000,7,121.29,-14.32,1.33
13.568000,-114.5000,7,121.29,-14.32,1.33
13.578000,-108.1250,7,121.29,-14.32,1.33
13.588000,-90.0000,7,121.29,-14.32,1.33
13.598000,-116.8750,7,121.29,-14.32,1.33
13.608000,-119.0000,7,121.29,-14.32,1.33
13.618000,-64.3750,7,121.29,-14.32,1.33
13.628000,-89.2500,7,121.29,-14.32,1.33
13.638000,-70.5000,7,121.29,-14.32,1.33
13.648000,-102.6250,7,121.29,-14.32,1.33
13.658000,-117.0000,7,121.29,-14.32,1.33
13.668000,-40.6250,7,121.29,-14.32,1.33
13.678000,-98.6250,7,121.29,-14.32,1.33
13.688000,-95.7500,7,121.29,-14.32,1.33
13.698000,-87.8750,7,121.29,-14.32,1.33
13.708000,-56.6250,7,121.29,-14.32,1.33
13.718000,-68.6250,7,121.29,-14.32,1.33
13.728000,-50.3750,7,121.29,-14.32,1.33
13.738000,-82.5000,7,121.29,-14.32,1.33
13.748000,-76.6250,7,121.29,-14.32,1.33
13.758000,-61.3750,7,121.29,-14.32,1.33
13.768000,-38.6250,7,121.29,-14.32,1.33
13.778000,-92.5000,7,121.29,-14.32,1.33
13.788000,-101.5000,7,121.29,-14.32,1.33
13.798000,-78.3750,7,121.29,-14.32,1.33
13.808000,-96.8750,7,121.29,-14.32,1.33
13.818000,-86.6250,7,121.29,-14.32,1.33
13.828000,-95.7500,7,121.29,-14.32,1.33
13.838000,-102.2500,7,121.29,-14.32,1.33
13.848000,-98.7500,7,121.29,-14.32,1.33
13.858000,-106.3750,7,121.29,-14.32,1.33
13.868000,-99.8750,7,121.29,-14.32,1.33
13.878000,-85.0000,7,121.29,-14.32,1.33
13.888000,-89.5000,7,121.29,-14.32,1.33
13.898000,-85.3750,7,121.29,-14.32,1.33
13.908000,-90.0000,7,121.29,-14.32,1.33
13.918000,-86.6250,7,121.29,-14.32,1.33
13.928000,-93.6250,7,121.29,-14.32,1.33
13.938000,-106.0000,7,121.29,-14.32,1.33
13.948000,-86.6250,7,121.29,-14.32,1.33
13.958000,-104.2500,7,121.29,-14.32,1.33
13.968000,-98.2500,7,121.29,-14.32,1.33
13.978000,-105.3750,7,121.29,-14.32,1.33
13.988000,-106.7500,7,121.29,-14.32,1.33
13.998000,-96.3750,7,121.29,-14.32,1.33
14.008000,-93.5000,7,121.29,-14.32,1.33
14.018000,-98.2500,7,121.29,-14.32,1.33
14.028000,-97.5000,7,121.29,-14.32,1.33
14.038000,-95.6250,7,121.29,-14.32,1.33
14.048000,-99.2500,7,121.29,-14.32,1.33
14.058000,-98.5000,7,121.29,-14.32,1.33
14.068000,-102.6250,7,121.29,-14.32,1.33
14.078000,-101.5000,7,121.29,-14.32,1.33
14.088000,-98.8750,7,121.29,-14.32,1.33
14.098000,-95.1250,7,121.29,-14.32,1.33
14.108000,-75.1250,7,121.29,-14.32,1.33
14.118000,-95.7500,7,121.29,-14.32,1.33
14.128000,-105.2500,7,121.29,-14.32,1.33
14.138000,-90.0000,7,121.29,-14.32,1.33
14.148000,-96.6250,7,121.29,-14.32,1.33
14.158000,-94.2500,7,121.29,-14.32,1.33
14.168000,-87.3750,7,121.29,-14.32,1.33
14.178000,-89.5000,7,121.29,-14.32,1.33
14.188000,-99.5000,7,121.29,-14.32,1.33
14.198000,-84.7500,7,121.29,-14.32,1.33
14.208000,-99.2500,7,121.29,-14.32,1.33
14.218000,-79.1250,7,121.29,-14.32,1.33
14.228000,-101.0000,7,121.29,-14.32,1.33
14.238000,-92.2500,7,121.29,-14.32,1.33
14.248000,-88.1250,7,121.29,-14.32,1.33
14.258000,-110.0000,7,121.29,-14.32,1.33
14.268000,-98.8750,7,121.29,-14.32,1.33
14.278000,-94.3750,7,121.29,-14.32,1.33
14.288000,-95.3750,7,121.29,-14.32,1.33
14.298000,-97.1250,7,121.29,-14.32,1.33
14.308000,-92.3750,7,121.29,-14.32,1.33
14.318000,-95.0000,7,121.29,-14.32,1.33
14.328000,-86.7500,7,121.29,-14.32,1.33
14.338000,-95.5000,7,121.29,-14.32,1.33
14.348000,-100.2500,7,121.29,-14.32,1.33
14.358000,-101.7500,7,121.29,-14.32,1.33
14.368000,-89.5000,7,121.29,-14.32,1.33
14.378000,-114.6250,7,121.29,-14.32,1.33
14.388000,-93.3750,7,121.29,-14.32,1.33
14.398000,-114.8750,7,121.29,-14.32,1.33
14.408000,-81.5000,7,121.29,-14.32,1.33
14.418000,-101.7500,7,121.29,-14.32,1.33
14.428000,-118.1250,7,121.29,-14.32,1.33
14.438000,-104.7500,7,121.29,-14.32,1.33
14.448000,-117.7500,7,121.29,-14.32,1.33
14.458000,-108.1250,7,121.29,-14.32,1.33
14.468000,-76.6250,7,121.29,-14.32,1.33
14.478000,-88.1250,7,121.29,-14.32,1.33
14.488000,-75.5000,7,121.29,-14.32,1.33
14.498000,-79.7500,7,121.29,-14.32,1.33
14.508000,-63.3750,7,121.29,-14.32,1.33
14.518000,-105.0000,7,121.29,-14.32,1.33
14.528000,-116.0000,7,121.29,-14.32,1.33
14.538000,-98.3750,7,121.29,-14.32,1.33
14.548000,-84.3750,7,121.29,-14.32,1.33
14.558000,-92.8750,7,121.29,-14.32,1.33
14.568000,-111.8750,7,121.29,-14.32,1.33
14.578000,-88.5000,7,121.29,-14.32,1.33
14.588000,-106.6250,7,121.29,-14.32,1.33
14.598000,-88.0000,7,121.29,-14.32,1.33
14.608000,-94.7500,7,121.29,-14.32,1.33
14.618000,-95.8750,7,121.29,-14.32,1.33
14.628000,-95.6250,7,121.29,-14.32,1.33
14.638000,-105.2500,7,121.29,-14.32,1.33
14.648000,-106.8750,7,121.29,-14.32,1.33
14.658000,-100.8750,7,121.29,-14.32,1.33
14.668000,-82.6250,7,121.29,-14.32,1.33
14.678000,-98.5000,7,121.29,-14.32,1.33
14.688000,-87.7500,7,121.29,-14.32,1.33
14.698000,-88.7500,7,121.29,-14.32,1.33
14.708000,-93.6250,7,121.29,-14.32,1.33
14.718000,-96.6250,7,121.29,-14.32,1.33
14.728000,-108.2500,7,121.29,-14.32,1.33
14.738000,-97.3750,7,121.29,-14.32,1.33
14.748000,-101.1250,7,121.29,-14.32,1.33
14.758000,-98.1250,7,121.29,-14.32,1.33
14.768000,-95.7500,7,121.29,-14.32,1.33
14.778000,-80.2500,7,121.29,-14.32,1.33
14.788000,-91.2500,7,121.29,-14.32,1.33
14.798000,-105.8750,7,121.29,-14.32,1.33
14.808000,-95.8750,7,121.29,-14.32,1.33
14.818000,-100.2500,7,121.29,-14.32,1.33
14.828000,-101.2500,7,121.29,-14.32,1.33
14.838000,-105.2500,7,121.29,-14.32,1.33
14.848000,-67.2500,7,121.29,-14.32,1.33
14.858000,-79.7500,7,121.29,-14.32,1.33
14.868000,-12.2500,7,121.29,-14.32,1.33
14.878000,-80.8750,7,121.29,-14.32,1.33
14.888000,-39.7500,7,121.29,-14.32,1.33
14.898000,-87.6250,7,121.29,-14.32,1.33
14.908000,-8.3750,7,121.29,-14.32,1.33
14.918000,-35.0000,7,121.29,-14.32,1.33
14.928000,-91.8750,7,121.29,-14.32,1.33
14.938000,-55.0000,7,121.29,-14.32,1.33
14.948000,-69.3750,7,121.29,-14.32,1.33
14.958000,-44.3750,7,121.29,-14.32,1.33
14.968000,-52.7500,7,121.29,-14.32,1.33
14.978000,-37.7500,7,121.29,-14.32,1.33
14.988000,-79.5000,7,121.29,-14.32,1.33
14.998000,-55.1250,7,121.29,-14.32,1.33
15.008000,-54.2500,7,121.29,-14.32,1.33
15.018000,-21.7500,7,121.29,-14.32,1.33
15.028000,-12.2500,7,121.29,-14.32,1.33
15.038000,-84.0000,7,121.29,-14.32,1.33
15.048000,-114.5000,7,121.29,-14.32,1.33
15.058000,-56.3750,7,121.29,-14.32,1.33
15.068000,-41.3750,7,121.29,-14.32,1.33
15.078000,-75.3750,7,121.29,-14.32,1.33
15.088000,-44.6250,7,121.29,-14.32,1.33
15.098000,-73.1250,7,121.29,-14.32,1.33
15.108000,-46.5000,7,121.29,-14.32,1.33
15.118000,-68.2500,7,121.29,-14.32,1.33
15.128000,-90.8750,7,121.29,-14.32,1.33
15.138000,-71.3750,7,121.29,-14.32,1.33
15.148000,-73.5000,7,121.29,-14.32,1.33
15.158000,-98.2500,7,121.29,-14.32,1.33
15.168000,-98.8750,7,121.29,-14.32,1.33
15.178000,-71.8750,7,121.29,-14.32,1.33
15.188000,-82.6250,7,121.29,-14.32,1.33
15.198000,-98.1250,7,121.29,-14.32,1.33
15.208000,-94.5000,7,121.29,-14.32,1.33
15.218000,-90.1250,7,121.29,-14.32,1.33
15.228000,-94.7500,7,121.29,-14.32,1.33
15.238000,-91.8750,7,121.29,-14.32,1.33
15.248000,-100.8750,7,121.29,-14.32,1.33
15.258000,-85.8750,7,121.29,-14.32,1.33
15.268000,-90.1250,7,121.29,-14.32,1.33
15.278000,-92.0000,7,121.29,-14.32,1.33
15.288000,-98.5000,7,121.29,-14.32,1.33
15.298000,-90.2500,7,121.29,-14.32,1.33
15.308000,-84.6250,7,121.29,-14.32,1.33
15.318000,-90.8750,7,121.29,-14.32,1.33
15.328000,-93.0000,7,121.29,-14.32,1.33
15.338000,-84.7500,7,121.29,-14.32,1.33
15.348000,-79.5000,7,121.29,-14.32,1.33
15.358000,-90.8750,7,121.29,-14.32,1.33
15.368000,-95.1250,7,121.29,-14.32,1.33
15.378000,-91.5000,7,121.29,-14.32,1.33
15.388000,-90.6250,7,121.29,-14.32,1.33
15.398000,-89.5000,7,121.29,-14.32,1.33
15.408000,-85.0000,7,121.29,-14.32,1.33
15.418000,-93.7500,7,121.29,-14.32,1.33
15.428000,-86.2500,7,121.29,-14.32,1.33
15.438000,-93.6250,7,121.29,-14.32,1.33
15.448000,-88.6250,7,121.29,-14.32,1.33
15.458000,-82.0000,7,121.29,-14.32,1.33
15.468000,-87.3750,7,121.29,-14.32,1.33
15.478000,-89.2500,7,121.29,-14.32,1.33
15.488000,-82.8750,7,121.29,-14.32,1.33
15.498000,-82.2500,7,121.29,-14.32,1.33
15.508000,-88.5000,7,121.29,-14.32,1.33
15.518000,-89.6250,7,121.29,-14.32,1.33
15.528000,-87.2500,7,121.29,-14.32,1.33
15.538000,-91.5000,7,121.29,-14.32,1.33
15.548000,-83.5000,7,121.29,-14.32,1.33
15.558000,-94.2500,7,121.29,-14.32,1.33
15.568000,-87.3750,7,121.29,-14.32,1.33
15.578000,-91.1250,7,121.29,-14.32,1.33
15.588000,-86.5000,7,121.29,-14.32,1.33
15.598000,-90.6250,7,121.29,-14.32,1.33
15.608000,-84.8750,7,121.29,-14.32,1.33
15.618000,-87.7500,7,121.29,-14.32,1.33
15.628000,-89.7500,7,121.29,-14.32,1.33
15.638000,-86.3750,7,121.29,-14.32,1.33
15.648000,-88.0000,7,121.29,-14.32,1.33
15.658000,-98.8750,7,121.29,-14.32,1.33
15.668000,-87.5000,7,121.29,-14.32,1.33
15.678000,-90.8750,7,121.29,-14.32,1.33
15.688000,-96.5000,7,121.29,-14.32,1.33
15.698000,-92.7500,7,121.29,-14.32,1.33
15.708000,-87.6250,7,121.29,-14.32,1.33
15.718000,-92.6250,7,121.29,-14.32,1.33
15.728000,-88.8750,7,121.29,-14.32,1.33
15.738000,-96.3750,7,121.29,-14.32,1.33
15.748000,-83.6250,7,121.29,-14.32,1.33
15.758000,-92.8750,7,121.29,-14.32,1.33
15.768000,-90.3750,7,121.29,-14.32,1.33
15.778000,-87.5000,7,121.29,-14.32,1.33
15.788000,-93.3750,7,121.29,-14.32,1.33
15.798000,-88.0000,7,121.29,-14.32,1.33
15.808000,-88.3750,7,121.29,-14.32,1.33
15.818000,-81.2500,7,121.29,-14.32,1.33
15.828000,-77.2500,7,121.29,-14.32,1.33
15.838000,-90.2500,7,121.29,-14.32,1.33
15.848000,-89.8750,7,121.29,-14.32,1.33
15.858000,-90.1250,7,121.29,-14.32,1.33
15.868000,-85.3750,7,121.29,-14.32,1.33
15.878000,-92.1250,7,121.29,-14.32,1.33
15.888000,-84.8750,7,121.29,-14.32,1.33
15.898000,-90.1250,7,121.29,-14.32,1.33
15.908000,-98.7500,7,121.29,-14.32,1.33
15.918000,-98.1250,7,121.29,-14.32,1.33
15.928000,-86.3750,7,121.29,-14.32,1.33
15.938000,-90.1250,7,121.29,-14.32,1.33
15.948000,-87.0000,7,121.29,-14.32,1.33
15.958000,-86.0000,7,121.29,-14.32,1.33
15.968000,-84.8750,7,121.29,-14.32,1.33
15.978000,-92.2500,7,121.29,-14.32,1.33
15.988000,-89.6250,7,121.29,-14.32,1.33
15.998000,-87.1250,7,121.29,-14.32,1.33
16.008000,-88.2500,7,121.29,-14.32,1.33
16.018000,-93.5000,7,121.29,-14.32,1.33
16.028000,-86.5000,7,121.29,-14.32,1.33
16.038000,-87.5000,7,121.29,-14.32,1.33
16.048000,-89.5000,7,121.29,-14.32,1.33
16.058000,-77.7500,7,121.29,-14.32,1.33
16.068000,-85.0000,7,121.29,-14.32,1.33
16.078000,-98.0000,7,121.29,-14.32,1.33
16.088000,-82.0000,7,121.29,-14.32,1.33
16.098000,-82.6250,7,121.29,-14.32,1.33
16.108000,-95.3750,7,121.29,-14.32,1.33
16.118000,-103.1250,7,121.29,-14.32,1.33
16.128000,-92.1250,7,121.29,-14.32,1.33
16.138000,-119.3750,7,121.29,-14.32,1.33
16.148000,-91.6250,7,121.29,-14.32,1.33
16.158000,-89.8750,7,121.29,-14.32,1.33
16.168000,-81.5000,7,121.29,-14.32,1.33
16.178000,-97.5000,7,121.29,-14.32,1.33
16.188000,-94.5000,7,121.29,-14.32,1.33
16.198000,-84.1250,7,121.29,-14.32,1.33
16.208000,-85.7500,7,121.29,-14.32,1.33
16.218000,-83.8750,7,121.29,-14.32,1.33
16.228000,-88.6250,7,121.29,-14.32,1.33
16.238000,-83.2500,7,121.29,-14.32,1.33
16.248000,-109.0000,7,121.29,-14.32,1.33
16.258000,-89.2500,7,121.29,-14.32,1.33
16.268000,-90.3750,7,121.29,-14.32,1.33
16.278000,-87.5000,7,121.29,-14.32,1.33
16.288000,-98.2500,7,121.29,-14.32,1.33
16.298000,-84.0000,7,121.29,-14.32,1.33
16.308000,-94.8750,7,121.29,-14.32,1.33
16.318000,-107.3750,7,121.29,-14.32,1.33
16.328000,-98.8750,7,121.29,-14.32,1.33
16.338000,-90.0000,7,121.29,-14.32,1.33
16.348000,-93.0000,7,121.29,-14.32,1.33
16.358000,-86.3750,7,121.29,-14.32,1.33
16.368000,-88.1250,7,121.29,-14.32,1.33
16.378000,-81.6250,7,121.29,-14.32,1.33
16.388000,-92.5000,7,121.29,-14.32,1.33
16.398000,-83.2500,7,121.29,-14.32,1.33
16.408000,-81.6250,7,121.29,-14.32,1.33
16.418000,-84.2500,7,121.29,-14.32,1.33
16.428000,-85.3750,7,121.29,-14.32,1.33
16.438000,-95.0000,7,121.29,-14.32,1.33
16.448000,-88.7500,7,121.29,-14.32,1.33
16.458000,-85.8750,7,121.29,-14.32,1.33
16.468000,-91.6250,7,121.29,-14.32,1.33
16.478000,-89.8750,7,121.29,-14.32,1.33
16.488000,-92.6250,7,121.29,-14.32,1.33
16.498000,-91.2500,7,121.29,-14.32,1.33
16.508000,-87.6250,7,121.29,-14.32,1.33
16.518000,-87.3750,7,121.29,-14.32,1.33
16.528000,-90.8750,7,121.29,-14.32,1.33
16.538000,-88.1250,7,121.29,-14.32,1.33
16.548000,-94.5000,7,121.29,-14.32,1.33
16.558000,-91.8750,7,121.29,-14.32,1.33
16.568000,-88.8750,7,121.29,-14.32,1.33
16.578000,-85.6250,7,121.29,-14.32,1.33
16.588000,-86.7500,7,121.29,-14.32,1.33
16.598000,-87.7500,7,121.29,-14.32,1.33
16.608000,-90.8750,7,121.29,-14.32,1.33
16.618000,-86.0000,7,121.29,-14.32,1.33
16.628000,-86.5000,7,121.29,-14.32,1.33
16.638000,-83.7500,7,121.29,-14.32,1.33
16.648000,-87.2500,7,121.29,-14.32,1.33
16.658000,-90.6250,7,121.29,-14.32,1.33
16.668000,-87.1250,7,121.29,-14.32,1.33
16.678000,-87.6250,7,121.29,-14.32,1.33
16.688000,-86.3750,7,121.29,-14.32,1.33
16.698000,-87.8750,7,121.29,-14.32,1.33
16.708000,-86.7500,7,121.29,-14.32,1.33
16.718000,-85.8750,7,121.29,-14.32,1.33
16.728000,-85.8750,7,121.29,-14.32,1.33
16.738000,-89.1250,7,121.29,-14.32,1.33
16.748000,-86.1250,7,121.29,-14.32,1.33
16.758000,-87.3750,7,121.29,-14.32,1.33
16.768000,-89.8750,7,121.29,-14.32,1.33
16.778000,-87.1250,7,121.29,-14.32,1.33
16.788000,-82.8750,7,121.29,-14.32,1.33
16.798000,-85.2500,7,121.29,-14.32,1.33
16.808000,-88.2500,7,121.29,-14.32,1.33
16.818000,-85.7500,7,121.29,-14.32,1.33
16.828000,-87.8750,7,121.29,-14.32,1.33
16.838000,-83.5000,7,121.29,-14.32,1.33
16.848000,-86.3750,7,121.29,-14.32,1.33
16.858000,-92.7500,7,121.29,-14.32,1.33
16.868000,-87.5000,7,121.29,-14.32,1.33
16.878000,-81.2500,7,121.29,-14.32,1.33
16.888000,-91.1250,7,121.29,-14.32,1.33
16.898000,-84.2500,7,121.29,-14.32,1.33
16.908000,-88.8750,7,121.29,-14.32,1.33
16.918000,-90.5000,7,121.29,-14.32,1.33
16.928000,-88.3750,7,121.29,-14.32,1.33
16.938000,-93.2500,7,121.29,-14.32,1.33
16.948000,-89.6250,7,121.29,-14.32,1.33
16.958000,-87.1250,7,121.29,-14.32,1.33
16.968000,-94.3750,7,121.29,-14.32,1.33
16.978000,-88.1250,7,121.29,-14.32,1.33
16.988000,-86.6250,9,92.25,-9.03,2.63
16.998000,-90.0000,9,92.25,-9.03,2.63
17.008000,-87.6250,9,92.25,-9.03,2.63
17.018000,-88.7500,9,92.25,-9.03,2.63
17.028000,-89.0000,9,92.25,-9.03,2.63
17.038000,-86.8750,9,92.25,-9.03,2.63
17.048000,-87.0000,9,92.25,-9.03,2.63
17.058000,-88.8750,9,92.25,-9.03,2.63
17.068000,-89.5000,9,92.25,-9.03,2.63
17.078000,-89.2500,9,92.25,-9.03,2.63
17.088000,-87.7500,9,92.25,-9.03,2.63
17.098000,-88.2500,9,92.25,-9.03,2.63
17.108000,-86.3750,9,92.25,-9.03,2.63
17.118000,-89.5000,9,92.25,-9.03,2.63
17.128000,-86.5000,9,92.25,-9.03,2.63
17.138000,-87.7500,9,92.25,-9.03,2.63
17.148000,-84.7500,9,92.25,-9.03,2.63
17.158000,-89.6250,9,92.25,-9.03,2.63
17.168000,-88.3750,9,92.25,-9.03,2.63
17.178000,-88.1250,9,92.25,-9.03,2.63
17.188000,-87.3750,9,92.25,-9.03,2.63
17.198000,-88.1250,9,92.25,-9.03,2.63
17.208000,-85.6250,9,92.25,-9.03,2.63
17.218000,-90.8750,9,92.25,-9.03,2.63
17.228000,-88.3750,9,92.25,-9.03,2.63
17.238000,-88.7500,9,92.25,-9.03,2.63
17.248000,-85.2500,9,92.25,-9.03,2.63
17.258000,-89.1250,9,92.25,-9.03,2.63
17.268000,-87.0000,9,92.25,-9.03,2.63
17.278000,-87.0000,9,92.25,-9.03,2.63
17.288000,-85.5000,9,92.25,-9.03,2.63
17.298000,-86.3750,9,92.25,-9.03,2.63
17.308000,-90.2500,9,92.25,-9.03,2.63
17.318000,-85.7500,9,92.25,-9.03,2.63
17.328000,-89.3750,9,92.25,-9.03,2.63
17.338000,-86.6250,9,92.25,-9.03,2.63
17.348000,-89.0000,9,92.25,-9.03,2.63
17.358000,-88.5000,9,92.25,-9.03,2.63
17.368000,-87.8750,9,92.25,-9.03,2.63
17.378000,-86.2500,9,92.25,-9.03,2.63
17.388000,-88.6250,9,92.25,-9.03,2.63
17.398000,-90.7500,9,92.25,-9.03,2.63
17.408000,-86.1250,9,92.25,-9.03,2.63
17.418000,-90.2500,9,92.25,-9.03,2.63
17.428000,-87.2500,9,92.25,-9.03,2.63
17.438000,-85.5000,9,92.25,-9.03,2.63
17.448000,-90.0000,9,92.25,-9.03,2.63
17.458000,-85.5000,9,92.25,-9.03,2.63
17.468000,-84.2500,9,92.25,-9.03,2.63
17.478000,-88.6250,9,92.25,-9.03,2.63
17.488000,-84.1250,9,92.25,-9.03,2.63
17.498000,-92.1250,9,92.25,-9.03,2.63
17.508000,-84.1250,9,92.25,-9.03,2.63
17.518000,-91.7500,9,92.25,-9.03,2.63
17.528000,-90.1250,9,92.25,-9.03,2.63
17.538000,-89.3750,9,92.25,-9.03,2.63
17.548000,-92.3750,9,92.25,-9.03,2.63
17.558000,-87.3750,9,92.25,-9.03,2.63
17.568000,-88.3750,9,92.25,-9.03,2.63
17.578000,-89.2500,9,92.25,-9.03,2.63
17.588000,-86.7500,9,92.25,-9.03,2.63
17.598000,-89.7500,9,92.25,-9.03,2.63
17.608000,-86.8750,9,92.25,-9.03,2.63
17.618000,-88.5000,9,92.25,-9.03,2.63
17.628000,-91.6250,9,92.25,-9.03,2.63
17.638000,-92.2500,9,92.25,-9.03,2.63
17.648000,-85.7500,9,92.25,-9.03,2.63
17.658000,-90.1250,9,92.25,-9.03,2.63
17.668000,-79.2500,9,92.25,-9.03,2.63
17.678000,-91.8750,9,92.25,-9.03,2.63
17.688000,-81.7500,9,92.25,-9.03,2.63
17.698000,-89.1250,9,92.25,-9.03,2.63
17.708000,-93.2500,9,92.25,-9.03,2.63
17.718000,-85.8750,9,92.25,-9.03,2.63
17.728000,-86.0000,9,92.25,-9.03,2.63
17.738000,-88.5000,9,92.25,-9.03,2.63
17.748000,-91.3750,9,92.25,-9.03,2.63
17.758000,-90.1250,9,92.25,-9.03,2.63
17.768000,-85.3750,9,92.25,-9.03,2.63
17.778000,-89.1250,9,92.25,-9.03,2.63
17.788000,-86.7500,9,92.25,-9.03,2.63
17.798000,-88.6250,9,92.25,-9.03,2.63
17.808000,-88.0000,9,92.25,-9.03,2.63
17.818000,-89.2500,9,92.25,-9.03,2.63
17.828000,-85.1250,9,92.25,-9.03,2.63
17.838000,-88.8750,9,92.25,-9.03,2.63
17.848000,-87.5000,9,92.25,-9.03,2.63
17.858000,-89.1250,9,92.25,-9.03,2.63
17.868000,-87.3750,9,92.25,-9.03,2.63
17.878000,-87.8750,9,92.25,-9.03,2.63
17.888000,-87.5000,9,92.25,-9.03,2.63
17.898000,-88.1250,9,92.25,-9.03,2.63
17.908000,-87.2500,9,92.25,-9.03,2.63
17.918000,-86.1250,9,92.25,-9.03,2.63
17.928000,-88.8750,9,92.25,-9.03,2.63
17.938000,-90.2500,9,92.25,-9.03,2.63
17.948000,-87.3750,9,92.25,-9.03,2.63
17.958000,-85.7500,9,92.25,-9.03,2.63
17.968000,-87.5000,9,92.25,-9.03,2.63
17.978000,-84.3750,9,92.25,-9.03,2.63
17.988000,-90.1250,9,92.25,-9.03,2.63
17.998000,-88.8750,9,92.25,-9.03,2.63
18.008000,-85.3750,9,92.25,-9.03,2.63
18.018000,-90.6250,9,92.25,-9.03,2.63
18.028000,-89.7500,9,92.25,-9.03,2.63
18.038000,-84.6250,9,92.25,-9.03,2.63
18.048000,-86.3750,9,92.25,-9.03,2.63
18.058000,-88.7500,9,92.25,-9.03,2.63
18.068000,-87.5000,9,92.25,-9.03,2.63
18.078000,-91.3750,9,92.25,-9.03,2.63
18.088000,-85.6250,9,92.25,-9.03,2.63
18.098000,-86.3750,9,92.25,-9.03,2.63
18.108000,-89.0000,9,92.25,-9.03,2.63
18.118000,-88.0000,9,92.25,-9.03,2.63
18.128000,-87.2500,9,92.25,-9.03,2.63
18.138000,-88.1250,9,92.25,-9.03,2.63
18.148000,-88.6250,9,92.25,-9.03,2.63
18.158000,-88.1250,9,92.25,-9.03,2.63
18.168000,-88.2500,9,92.25,-9.03,2.63
18.178000,-87.6250,9,92.25,-9.03,2.63
18.188000,-88.5000,9,92.25,-9.03,2.63
18.198000,-86.7500,9,92.25,-9.03,2.63
18.208000,-88.5000,9,92.25,-9.03,2.63
18.218000,-86.3750,9,92.25,-9.03,2.63
18.228000,-89.1250,9,92.25,-9.03,2.63
18.238000,-88.2500,9,92.25,-9.03,2.63
18.248000,-87.5000,9,92.25,-9.03,2.63
18.258000,-86.1250,9,92.25,-9.03,2.63
18.268000,-89.1250,9,92.25,-9.03,2.63
18.278000,-85.7500,9,92.25,-9.03,2.63
18.288000,-91.2500,9,92.25,-9.03,2.63
18.298000,-88.5000,9,92.25,-9.03,2.63
18.308000,-91.8750,9,92.25,-9.03,2.63
18.318000,-89.6250,9,92.25,-9.03,2.63
18.328000,-89.3750,9,92.25,-9.03,2.63
18.338000,-90.3750,9,92.25,-9.03,2.63
18.348000,-89.2500,9,92.25,-9.03,2.63
18.358000,-87.6250,9,92.25,-9.03,2.63
18.368000,-89.1250,9,92.25,-9.03,2.63
18.378000,-87.8750,9,92.25,-9.03,2.63
18.388000,-92.1250,9,92.25,-9.03,2.63
18.398000,-90.5000,9,92.25,-9.03,2.63
18.408000,-86.8750,9,92.25,-9.03,2.63
18.418000,-88.8750,9,92.25,-9.03,2.63
18.428000,-88.7500,9,92.25,-9.03,2.63
18.438000,-89.0000,9,92.25,-9.03,2.63
18.448000,-89.8750,9,92.25,-9.03,2.63
18.458000,-85.8750,9,92.25,-9.03,2.63
18.468000,-85.2500,9,92.25,-9.03,2.63
18.478000,-89.7500,9,92.25,-9.03,2.63
18.488000,-90.1250,9,92.25,-9.03,2.63
18.498000,-85.7500,9,92.25,-9.03,2.63
18.508000,-89.5000,9,92.25,-9.03,2.63
18.518000,-87.8750,9,92.25,-9.03,2.63
18.528000,-88.6250,9,92.25,-9.03,2.63
18.538000,-87.5000,9,92.25,-9.03,2.63
18.548000,-87.8750,9,92.25,-9.03,2.63
18.558000,-89.1250,9,92.25,-9.03,2.63
18.568000,-86.8750,9,92.25,-9.03,2.63
18.578000,-89.3750,9,92.25,-9.03,2.63
18.588000,-88.1250,9,92.25,-9.03,2.63
18.598000,-89.8750,9,92.25,-9.03,2.63
18.608000,-85.1250,9,92.25,-9.03,2.63
18.618000,-85.1250,9,92.25,-9.03,2.63
18.628000,-83.7500,9,92.25,-9.03,2.63
18.638000,-87.7500,9,92.25,-9.03,2.63
18.648000,-88.2500,9,92.25,-9.03,2.63
18.658000,-86.1250,9,92.25,-9.03,2.63
18.668000,-84.8750,9,92.25,-9.03,2.63
18.678000,-90.2500,9,92.25,-9.03,2.63
18.688000,-83.6250,9,92.25,-9.03,2.63
18.698000,-89.0000,9,92.25,-9.03,2.63
18.708000,-89.2500,9,92.25,-9.03,2.63
18.718000,-89.6250,9,92.25,-9.03,2.63
18.728000,-88.8750,9,92.25,-9.03,2.63
18.738000,-91.3750,9,92.25,-9.03,2.63
18.748000,-86.3750,9,92.25,-9.03,2.63
18.758000,-85.8750,9,92.25,-9.03,2.63
18.768000,-87.3750,9,92.25,-9.03,2.63
18.778000,-85.8750,9,92.25,-9.03,2.63
18.788000,-88.1250,9,92.25,-9.03,2.63
18.798000,-86.2500,9,92.25,-9.03,2.63
18.808000,-86.8750,9,92.25,-9.03,2.63
18.818000,-87.8750,9,92.25,-9.03,2.63
18.828000,-88.7500,9,92.25,-9.03,2.63
18.838000,-88.6250,9,92.25,-9.03,2.63
18.848000,-87.7500,9,92.25,-9.03,2.63
18.858000,-89.1250,9,92.25,-9.03,2.63
18.868000,-86.0000,9,92.25,-9.03,2.63
18.878000,-85.2500,9,92.25,-9.03,2.63
18.888000,-86.8750,9,92.25,-9.03,2.63
18.898000,-90.0000,9,92.25,-9.03,2.63
18.908000,-88.1250,9,92.25,-9.03,2.63
18.918000,-83.8750,9,92.25,-9.03,2.63
18.928000,-91.0000,9,92.25,-9.03,2.63
18.938000,-85.1250,9,92.25,-9.03,2.63
18.948000,-88.2500,9,92.25,-9.03,2.63
18.958000,-89.6250,9,92.25,-9.03,2.63
18.968000,-89.2500,9,92.25,-9.03,2.63
18.978000,-90.5000,9,92.25,-9.03,2.63
18.988000,-85.3750,9,92.25,-9.03,2.63
18.998000,-89.1250,9,92.25,-9.03,2.63
19.008000,-84.5000,9,92.25,-9.03,2.63
19.018000,-89.1250,9,92.25,-9.03,2.63
19.028000,-88.2500,9,92.25,-9.03,2.63
19.038000,-88.8750,9,92.25,-9.03,2.63
19.048000,-87.8750,9,92.25,-9.03,2.63
19.058000,-87.2500,9,92.25,-9.03,2.63
19.068000,-88.3750,9,92.25,-9.03,2.63
19.078000,-89.2500,9,92.25,-9.03,2.63
19.088000,-88.2500,9,92.25,-9.03,2.63
19.098000,-87.1250,9,92.25,-9.03,2.63
19.108000,-86.0000,9,92.25,-9.03,2.63
19.118000,-88.5000,9,92.25,-9.03,2.63
19.128000,-87.3750,9,92.25,-9.03,2.63
19.138000,-87.2500,9,92.25,-9.03,2.63
19.148000,-83.8750,9,92.25,-9.03,2.63
19.158000,-89.5000,9,92.25,-9.03,2.63
19.168000,-87.5000,9,92.25,-9.03,2.63
19.178000,-84.3750,9,92.25,-9.03,2.63
19.188000,-88.3750,9,92.25,-9.03,2.63
19.198000,-88.1250,9,92.25,-9.03,2.63
19.208000,-86.3750,9,92.25,-9.03,2.63
19.218000,-88.7500,9,92.25,-9.03,2.63
19.228000,-86.2500,9,92.25,-9.03,2.63
19.238000,-89.3750,9,92.25,-9.03,2.63
19.248000,-87.0000,9,92.25,-9.03,2.63
19.258000,-89.6250,9,92.25,-9.03,2.63
19.268000,-85.8750,9,92.25,-9.03,2.63
19.278000,-90.8750,9,92.25,-9.03,2.63
19.288000,-91.3750,9,92.25,-9.03,2.63
19.298000,-88.2500,9,92.25,-9.03,2.63
19.308000,-87.8750,9,92.25,-9.03,2.63
19.318000,-87.2500,9,92.25,-9.03,2.63
19.328000,-85.2500,9,92.25,-9.03,2.63
19.338000,-93.3750,9,92.25,-9.03,2.63
19.348000,-85.2500,9,92.25,-9.03,2.63
19.358000,-86.7500,9,92.25,-9.03,2.63
19.368000,-94.5000,9,92.25,-9.03,2.63
19.378000,-87.0000,9,92.25,-9.03,2.63
19.388000,-94.6250,9,92.25,-9.03,2.63
19.398000,-95.7500,9,92.25,-9.03,2.63
19.408000,-91.8750,9,92.25,-9.03,2.63
19.418000,-91.5000,9,92.25,-9.03,2.63
19.428000,-90.1250,9,92.25,-9.03,2.63
19.438000,-93.1250,9,92.25,-9.03,2.63
19.448000,-89.8750,9,92.25,-9.03,2.63
19.458000,-98.3750,9,92.25,-9.03,2.63
19.468000,-86.6250,9,92.25,-9.03,2.63
19.478000,-93.0000,9,92.25,-9.03,2.63
19.488000,-98.1250,9,92.25,-9.03,2.63
19.498000,-93.3750,9,92.25,-9.03,2.63
19.508000,-86.6250,9,92.25,-9.03,2.63
19.518000,-88.5000,9,92.25,-9.03,2.63
19.528000,-99.8750,9,92.25,-9.03,2.63
19.538000,-86.8750,9,92.25,-9.03,2.63
19.548000,-89.1250,9,92.25,-9.03,2.63
19.558000,-92.1250,9,92.25,-9.03,2.63
19.568000,-95.1250,9,92.25,-9.03,2.63
19.578000,-90.7500,9,92.25,-9.03,2.63
19.588000,-102.5000,9,92.25,-9.03,2.63
19.598000,-95.6250,9,92.25,-9.03,2.63
19.608000,-86.3750,9,92.25,-9.03,2.63
19.618000,-94.0000,9,92.25,-9.03,2.63
19.628000,-103.6250,9,92.25,-9.03,2.63
19.638000,-86.1250,9,92.25,-9.03,2.63
19.648000,-96.1250,9,92.25,-9.03,2.63
19.658000,-101.3750,9,92.25,-9.03,2.63
19.668000,-97.8750,9,92.25,-9.03,2.63
19.678000,-98.7500,9,92.25,-9.03,2.63
19.688000,-93.0000,9,92.25,-9.03,2.63
19.698000,-88.8750,9,92.25,-9.03,2.63
19.708000,-99.1250,9,92.25,-9.03,2.63
19.718000,-94.6250,9,92.25,-9.03,2.63
19.728000,-89.0000,9,92.25,-9.03,2.63
19.738000,-84.7500,9,92.25,-9.03,2.63
19.748000,-95.3750,9,92.25,-9.03,2.63
19.758000,-91.2500,9,92.25,-9.03,2.63
19.768000,-98.6250,9,92.25,-9.03,2.63
19.778000,-92.8750,9,92.25,-9.03,2.63
19.788000,-80.5000,9,92.25,-9.03,2.63
19.798000,-90.5000,9,92.25,-9.03,2.63
19.808000,-88.7500,9,92.25,-9.03,2.63
19.818000,-97.6250,9,92.25,-9.03,2.63
19.828000,-100.7500,9,92.25,-9.03,2.63
19.838000,-93.7500,9,92.25,-9.03,2.63
19.848000,-84.2500,9,92.25,-9.03,2.63
19.858000,-92.5000,9,92.25,-9.03,2.63
19.868000,-97.2500,9,92.25,-9.03,2.63
19.878000,-97.0000,9,92.25,-9.03,2.63
19.888000,-82.2500,9,92.25,-9.03,2.63
19.898000,-96.1250,9,92.25,-9.03,2.63
19.908000,-93.0000,9,92.25,-9.03,2.63
19.918000,-84.6250,9,92.25,-9.03,2.63
19.928000,-113.2500,9,92.25,-9.03,2.63
19.938000,-99.2500,9,92.25,-9.03,2.63
19.948000,-88.6250,9,92.25,-9.03,2.63
19.958000,-94.6250,9,92.25,-9.03,2.63
19.968000,-99.5000,9,92.25,-9.03,2.63
19.978000,-94.7500,9,92.25,-9.03,2.63
19.988000,-79.0000,9,92.25,-9.03,2.63
19.998000,-88.5000,9,92.25,-9.03,2.63
20.008000,-89.7500,9,92.25,-9.03,2.63
20.018000,-91.8750,9,92.25,-9.03,2.63
20.028000,-90.0000,9,92.25,-9.03,2.63
20.038000,-99.2500,9,92.25,-9.03,2.63
20.048000,-97.5000,9,92.25,-9.03,2.63
20.058000,-106.6250,9,92.25,-9.03,2.63
20.068000,-96.1250,9,92.25,-9.03,2.63
20.078000,-90.1250,9,92.25,-9.03,2.63
20.088000,-100.3750,9,92.25,-9.03,2.63
20.098000,-99.0000,9,92.25,-9.03,2.63
20.108000,-89.3750,9,92.25,-9.03,2.63
20.118000,-82.8750,9,92.25,-9.03,2.63
20.128000,-87.2500,9,92.25,-9.03,2.63
20.138000,-100.7500,9,92.25,-9.03,2.63
20.148000,-80.5000,9,92.25,-9.03,2.63
20.158000,-104.6250,9,92.25,-9.03,2.63
20.168000,-96.0000,9,92.25,-9.03,2.63
20.178000,-110.5000,9,92.25,-9.03,2.63
20.188000,-93.5000,9,92.25,-9.03,2.63
20.198000,-94.0000,9,92.25,-9.03,2.63
20.208000,-95.5000,9,92.25,-9.03,2.63
20.218000,-85.5000,9,92.25,-9.03,2.63
20.228000,-42.1250,9,92.25,-9.03,2.63
20.238000,-70.5000,9,92.25,-9.03,2.63
20.248000,-116.2500,9,92.25,-9.03,2.63
20.258000,-89.1250,9,92.25,-9.03,2.63
20.268000,-91.3750,9,92.25,-9.03,2.63
20.278000,-96.0000,9,92.25,-9.03,2.63
20.288000,-97.2500,9,92.25,-9.03,2.63
20.298000,-88.2500,9,92.25,-9.03,2.63
20.308000,-90.8750,9,92.25,-9.03,2.63
20.318000,-93.0000,9,92.25,-9.03,2.63
20.328000,-90.0000,9,92.25,-9.03,2.63
20.338000,-86.5000,9,92.25,-9.03,2.63
20.348000,-84.8750,9,92.25,-9.03,2.63
20.358000,-88.8750,9,92.25,-9.03,2.63
20.368000,-100.5000,9,92.25,-9.03,2.63
20.378000,-89.6250,9,92.25,-9.03,2.63
20.388000,-96.5000,9,92.25,-9.03,2.63
20.398000,-91.6250,9,92.25,-9.03,2.63
20.408000,-98.8750,9,92.25,-9.03,2.63
20.418000,-86.6250,9,92.25,-9.03,2.63
20.428000,-98.5000,9,92.25,-9.03,2.63
20.438000,-82.6250,9,92.25,-9.03,2.63
20.448000,-92.1250,9,92.25,-9.03,2.63
20.458000,-98.0000,9,92.25,-9.03,2.63
20.468000,-91.3750,9,92.25,-9.03,2.63
20.478000,-92.8750,9,92.25,-9.03,2.63
20.488000,-90.5000,9,92.25,-9.03,2.63
20.498000,-91.7500,9,92.25,-9.03,2.63
20.508000,-98.0000,9,92.25,-9.03,2.63
20.518000,-73.0000,9,92.25,-9.03,2.63
20.528000,-93.5000,9,92.25,-9.03,2.63
20.538000,-93.6250,9,92.25,-9.03,2.63
20.548000,-95.8750,9,92.25,-9.03,2.63
20.558000,-96.1250,9,92.25,-9.03,2.63
20.568000,-93.8750,9,92.25,-9.03,2.63
20.578000,-87.1250,9,92.25,-9.03,2.63
20.588000,-97.5000,9,92.25,-9.03,2.63
20.598000,-96.1250,9,92.25,-9.03,2.63
20.608000,-91.0000,9,92.25,-9.03,2.63
20.618000,-90.2500,9,92.25,-9.03,2.63
20.628000,-87.5000,9,92.25,-9.03,2.63
20.638000,-87.8750,9,92.25,-9.03,2.63
20.648000,-93.1250,9,92.25,-9.03,2.63
20.658000,-88.3750,9,92.25,-9.03,2.63
20.668000,-90.5000,9,92.25,-9.03,2.63
20.678000,-89.3750,9,92.25,-9.03,2.63
20.688000,-93.6250,9,92.25,-9.03,2.63
20.698000,-85.5000,9,92.25,-9.03,2.63
20.708000,-89.5000,9,92.25,-9.03,2.63
20.718000,-85.5000,9,92.25,-9.03,2.63
20.728000,-99.0000,9,92.25,-9.03,2.63
20.738000,-92.5000,9,92.25,-9.03,2.63
20.748000,-92.0000,9,92.25,-9.03,2.63
20.758000,-95.3750,9,92.25,-9.03,2.63
20.768000,-92.0000,9,92.25,-9.03,2.63
20.778000,-90.3750,9,92.25,-9.03,2.63
20.788000,-86.5000,9,92.25,-9.03,2.63
20.798000,-96.7500,9,92.25,-9.03,2.63
20.808000,-84.8750,9,92.25,-9.03,2.63
20.818000,-95.6250,9,92.25,-9.03,2.63
20.828000,-97.0000,9,92.25,-9.03,2.63
20.838000,-91.5000,9,92.25,-9.03,2.63
20.848000,-92.3750,9,92.25,-9.03,2.63
20.858000,-87.7500,9,92.25,-9.03,2.63
20.868000,-96.0000,9,92.25,-9.03,2.63
20.878000,-92.0000,9,92.25,-9.03,2.63
20.888000,-88.1250,9,92.25,-9.03,2.63
20.898000,-80.3750,9,92.25,-9.03,2.63
20.908000,-88.3750,9,92.25,-9.03,2.63
20.918000,-87.1250,9,92.25,-9.03,2.63
20.928000,-90.0000,9,92.25,-9.03,2.63
20.938000,-104.2500,9,92.25,-9.03,2.63
20.948000,-97.0000,9,92.25,-9.03,2.63
20.958000,-91.7500,9,92.25,-9.03,2.63
20.968000,-96.6250,9,92.25,-9.03,2.63
20.978000,-84.8750,9,92.25,-9.03,2.63
20.988000,-88.6250,9,92.25,-9.03,2.63
20.998000,-86.0000,9,92.25,-9.03,2.63
21.008000,-99.1250,9,92.25,-9.03,2.63
21.018000,-97.2500,9,92.25,-9.03,2.63
21.028000,-94.7500,9,92.25,-9.03,2.63
21.038000,-95.5000,9,92.25,-9.03,2.63
21.048000,-94.1250,9,92.25,-9.03,2.63
21.058000,-98.1250,9,92.25,-9.03,2.63
21.068000,-100.7500,9,92.25,-9.03,2.63
21.078000,-102.7500,9,92.25,-9.03,2.63
21.088000,-91.5000,9,92.25,-9.03,2.63
21.098000,-115.5000,9,92.25,-9.03,2.63
21.108000,-112.7500,9,92.25,-9.03,2.63
21.118000,-84.1250,9,92.25,-9.03,2.63
21.128000,-109.2500,9,92.25,-9.03,2.63
21.138000,-109.0000,9,92.25,-9.03,2.63
21.148000,-109.0000,9,92.25,-9.03,2.63
21.158000,-100.5000,9,92.25,-9.03,2.63
21.168000,-90.2500,9,92.25,-9.03,2.63
21.178000,-84.0000,9,92.25,-9.03,2.63
21.188000,-114.1250,9,92.25,-9.03,2.63
21.198000,-98.8750,9,92.25,-9.03,2.63
21.208000,-111.0000,9,92.25,-9.03,2.63
21.218000,-94.3750,9,92.25,-9.03,2.63
21.228000,-87.0000,9,92.25,-9.03,2.63
21.238000,-93.7500,9,92.25,-9.03,2.63
21.248000,-91.1250,9,92.25,-9.03,2.63
21.258000,-102.5000,11,99.76,-6.02,4.09
21.268000,-90.8750,11,99.76,-6.02,4.09
21.278000,-75.7500,11,99.76,-6.02,4.09
21.288000,-91.6250,11,99.76,-6.02,4.09
21.298000,-85.6250,11,99.76,-6.02,4.09
21.308000,-87.2500,11,99.76,-6.02,4.09
21.318000,-103.2500,11,99.76,-6.02,4.09
21.328000,-91.2500,11,99.76,-6.02,4.09
21.338000,-88.1250,11,99.76,-6.02,4.09
21.348000,-90.1250,11,99.76,-6.02,4.09
21.358000,-90.0000,11,99.76,-6.02,4.09
21.368000,-96.1250,11,99.76,-6.02,4.09
21.378000,-90.3750,11,99.76,-6.02,4.09
21.388000,-81.0000,11,99.76,-6.02,4.09
21.398000,-97.0000,11,99.76,-6.02,4.09
21.408000,-94.1250,11,99.76,-6.02,4.09
21.418000,-89.6250,11,99.76,-6.02,4.09
21.428000,-88.6250,11,99.76,-6.02,4.09
21.438000,-78.2500,11,99.76,-6.02,4.09
21.448000,-92.2500,11,99.76,-6.02,4.09
21.458000,-89.2500,11,99.76,-6.02,4.09
21.468000,-89.8750,11,99.76,-6.02,4.09
21.478000,-92.5000,11,99.76,-6.02,4.09
21.488000,-91.8750,11,99.76,-6.02,4.09
21.498000,-89.5000,11,99.76,-6.02,4.09
21.508000,-93.8750,11,99.76,-6.02,4.09
21.518000,-94.7500,11,99.76,-6.02,4.09
21.528000,-85.6250,11,99.76,-6.02,4.09
21.538000,-93.6250,11,99.76,-6.02,4.09
21.548000,-93.7500,11,99.76,-6.02,4.09
21.558000,-96.0000,11,99.76,-6.02,4.09
21.568000,-99.1250,11,99.76,-6.02,4.09
21.578000,-92.2500,11,99.76,-6.02,4.09
21.588000,-88.5000,11,99.76,-6.02,4.09
21.598000,-88.6250,11,99.76,-6.02,4.09
21.608000,-97.6250,11,99.76,-6.02,4.09
21.618000,-79.5000,11,99.76,-6.02,4.09
21.628000,-100.5000,11,99.76,-6.02,4.09
21.638000,-91.1250,11,99.76,-6.02,4.09
21.648000,-95.7500,11,99.76,-6.02,4.09
21.658000,-87.3750,11,99.76,-6.02,4.09
21.668000,-99.6250,11,99.76,-6.02,4.09
21.678000,-96.5000,11,99.76,-6.02,4.09
21.688000,-105.6250,11,99.76,-6.02,4.09
21.698000,-95.7500,11,99.76,-6.02,4.09
21.708000,-97.7500,11,99.76,-6.02,4.09
21.718000,-40.1250,11,99.76,-6.02,4.09
21.728000,-52.0000,11,99.76,-6.02,4.09
21.738000,-29.5000,11,99.76,-6.02,4.09
21.748000,-101.6250,11,99.76,-6.02,4.09
21.758000,-49.7500,11,99.76,-6.02,4.09
21.768000,-92.6250,11,99.76,-6.02,4.09
21.778000,-56.1250,11,99.76,-6.02,4.09
21.788000,-99.2500,11,99.76,-6.02,4.09
21.798000,-37.7500,11,99.76,-6.02,4.09
21.808000,-106.7500,11,99.76,-6.02,4.09
21.818000,-54.1250,11,99.76,-6.02,4.09
21.828000,-78.0000,11,99.76,-6.02,4.09
21.838000,-45.8750,11,99.76,-6.02,4.09
21.848000,-39.3750,11,99.76,-6.02,4.09
21.858000,-75.2500,11,99.76,-6.02,4.09
21.868000,-64.0000,11,99.76,-6.02,4.09
21.878000,-79.2500,11,99.76,-6.02,4.09
21.888000,-26.1250,11,99.76,-6.02,4.09
21.898000,-45.6250,11,99.76,-6.02,4.09
21.908000,-78.3750,11,99.76,-6.02,4.09
21.918000,-59.5000,11,99.76,-6.02,4.09
21.928000,-89.2500,11,99.76,-6.02,4.09
21.938000,-82.0000,11,99.76,-6.02,4.09
21.948000,-47.1250,11,99.76,-6.02,4.09
21.958000,-42.2500,11,99.76,-6.02,4.09
21.968000,-36.0000,11,99.76,-6.02,4.09
21.978000,-37.8750,11,99.76,-6.02,4.09
21.988000,-36.0000,11,99.76,-6.02,4.09
21.998000,-105.7500,11,99.76,-6.02,4.09
22.008000,-136.7500,11,99.76,-6.02,4.09
22.018000,-90.6250,11,99.76,-6.02,4.09
22.028000,-56.6250,11,99.76,-6.02,4.09
22.038000,-97.8750,11,99.76,-6.02,4.09
22.048000,-44.8750,11,99.76,-6.02,4.09
22.058000,-96.3750,11,99.76,-6.02,4.09
22.068000,-30.2500,11,99.76,-6.02,4.09
22.078000,-38.5000,11,99.76,-6.02,4.09
22.088000,-18.1250,11,99.76,-6.02,4.09
22.098000,-43.1250,11,99.76,-6.02,4.09
22.108000,-38.2500,11,99.76,-6.02,4.09
22.118000,-80.0000,11,99.76,-6.02,4.09
22.128000,-59.3750,11,99.76,-6.02,4.09
22.138000,-94.3750,11,99.76,-6.02,4.09
22.148000,-67.0000,11,99.76,-6.02,4.09
22.158000,-78.2500,11,99.76,-6.02,4.09
22.168000,-83.3750,11,99.76,-6.02,4.09
22.178000,-119.8750,11,99.76,-6.02,4.09
22.188000,-107.0000,11,99.76,-6.02,4.09
22.198000,-126.8750,11,99.76,-6.02,4.09
22.208000,-121.6250,11,99.76,-6.02,4.09
22.218000,-115.0000,11,99.76,-6.02,4.09
22.228000,-100.2500,11,99.76,-6.02,4.09
22.238000,-83.2500,11,99.76,-6.02,4.09
22.248000,-109.7500,11,99.76,-6.02,4.09
22.258000,-108.3750,11,99.76,-6.02,4.09
22.268000,-102.0000,11,99.76,-6.02,4.09
22.278000,-106.3750,11,99.76,-6.02,4.09
22.288000,-111.8750,11,99.76,-6.02,4.09
22.298000,-89.5000,11,99.76,-6.02,4.09
22.308000,-116.6250,11,99.76,-6.02,4.09
22.318000,-106.5000,11,99.76,-6.02,4.09
22.328000,-105.6250,11,99.76,-6.02,4.09
22.338000,-104.2500,11,99.76,-6.02,4.09
22.348000,-102.5000,11,99.76,-6.02,4.09
22.358000,-100.0000,11,99.76,-6.02,4.09
22.368000,-101.6250,11,99.76,-6.02,4.09
22.378000,-99.0000,11,99.76,-6.02,4.09
22.388000,-72.2500,11,99.76,-6.02,4.09
22.398000,-100.5000,11,99.76,-6.02,4.09
22.408000,-97.7500,11,99.76,-6.02,4.09
22.418000,-93.3750,11,99.76,-6.02,4.09
22.428000,-108.1250,11,99.76,-6.02,4.09
22.438000,-75.5000,11,99.76,-6.02,4.09
22.448000,-62.5000,11,99.76,-6.02,4.09
22.458000,-75.3750,11,99.76,-6.02,4.09
22.468000,-38.5000,11,99.76,-6.02,4.09
22.478000,-56.2500,11,99.76,-6.02,4.09
22.488000,-39.1250,11,99.76,-6.02,4.09
22.498000,-111.1250,11,99.76,-6.02,4.09
22.508000,-39.8750,11,99.76,-6.02,4.09
22.518000,-71.0000,11,99.76,-6.02,4.09
22.528000,-51.7500,11,99.76,-6.02,4.09
22.538000,-67.2500,11,99.76,-6.02,4.09
22.548000,-49.6250,11,99.76,-6.02,4.09
22.558000,-53.1250,11,99.76,-6.02,4.09
22.568000,-71.7500,11,99.76,-6.02,4.09
22.578000,-56.2500,11,99.76,-6.02,4.09
22.588000,-54.6250,11,99.76,-6.02,4.09
22.598000,-49.3750,11,99.76,-6.02,4.09
22.608000,-42.6250,11,99.76,-6.02,4.09
22.618000,-50.2500,11,99.76,-6.02,4.09
22.628000,-73.6250,11,99.76,-6.02,4.09
22.638000,-11.5000,11,99.76,-6.02,4.09
22.648000,-50.6250,11,99.76,-6.02,4.09
22.658000,-15.2500,11,99.76,-6.02,4.09
22.668000,-55.0000,11,99.76,-6.02,4.09
22.678000,-69.1250,11,99.76,-6.02,4.09
22.688000,-11.3750,11,99.76,-6.02,4.09
22.698000,-58.5000,11,99.76,-6.02,4.09
22.708000,-74.0000,11,99.76,-6.02,4.09
22.718000,-46.8750,11,99.76,-6.02,4.09
22.728000,-18.0000,11,99.76,-6.02,4.09
22.738000,-79.3750,11,99.76,-6.02,4.09
22.748000,-49.8750,11,99.76,-6.02,4.09
22.758000,-86.1250,11,99.76,-6.02,4.09
22.768000,-33.3750,11,99.76,-6.02,4.09
22.778000,-18.8750,11,99.76,-6.02,4.09
22.788000,-81.0000,11,99.76,-6.02,4.09
22.798000,-82.5000,11,99.76,-6.02,4.09
22.808000,-86.2500,11,99.76,-6.02,4.09
22.818000,-100.3750,11,99.76,-6.02,4.09
22.828000,-113.3750,11,99.76,-6.02,4.09
22.838000,-92.1250,11,99.76,-6.02,4.09
22.848000,-85.5000,11,99.76,-6.02,4.09
22.858000,-93.5000,11,99.76,-6.02,4.09
22.868000,-90.1250,11,99.76,-6.02,4.09
22.878000,-96.2500,11,99.76,-6.02,4.09
22.888000,-91.8750,11,99.76,-6.02,4.09
22.898000,-86.7500,11,99.76,-6.02,4.09
22.908000,-42.0000,11,99.76,-6.02,4.09
22.918000,-92.2500,11,99.76,-6.02,4.09
22.928000,-107.0000,11,99.76,-6.02,4.09
22.938000,-78.5000,11,99.76,-6.02,4.09
22.948000,-88.8750,11,99.76,-6.02,4.09
22.958000,-94.2500,11,99.76,-6.02,4.09
22.968000,-95.8750,11,99.76,-6.02,4.09
22.978000,-81.8750,11,99.76,-6.02,4.09
22.988000,-105.2500,11,99.76,-6.02,4.09
22.998000,-96.7500,11,99.76,-6.02,4.09
23.008000,-49.5000,11,99.76,-6.02,4.09
23.018000,-46.8750,11,99.76,-6.02,4.09
23.028000,-44.2500,11,99.76,-6.02,4.09
23.038000,-72.3750,11,99.76,-6.02,4.09
23.048000,-88.6250,11,99.76,-6.02,4.09
23.058000,-93.7500,11,99.76,-6.02,4.09
23.068000,-90.6250,11,99.76,-6.02,4.09
23.078000,-81.1250,11,99.76,-6.02,4.09
23.088000,-101.5000,11,99.76,-6.02,4.09
23.098000,-95.3750,11,99.76,-6.02,4.09
23.108000,-93.1250,11,99.76,-6.02,4.09
23.118000,-104.2500,11,99.76,-6.02,4.09
23.128000,-93.0000,11,99.76,-6.02,4.09
23.138000,-99.3750,11,99.76,-6.02,4.09
23.148000,-92.3750,11,99.76,-6.02,4.09
23.158000,-87.7500,11,99.76,-6.02,4.09
23.168000,-90.6250,11,99.76,-6.02,4.09
23.178000,-90.7500,11,99.76,-6.02,4.09
23.188000,-96.8750,11,99.76,-6.02,4.09
23.198000,-88.3750,11,99.76,-6.02,4.09
23.208000,-93.6250,11,99.76,-6.02,4.09
23.218000,-84.3750,11,99.76,-6.02,4.09
23.228000,-68.5000,11,99.76,-6.02,4.09
23.238000,-101.0000,11,99.76,-6.02,4.09
23.248000,-88.7500,11,99.76,-6.02,4.09
23.258000,-94.2500,11,99.76,-6.02,4.09
23.268000,-77.3750,11,99.76,-6.02,4.09
23.278000,-98.2500,11,99.76,-6.02,4.09
23.288000,-94.3750,11,99.76,-6.02,4.09
23.298000,-79.0000,11,99.76,-6.02,4.09
23.308000,-98.8750,11,99.76,-6.02,4.09
23.318000,-88.1250,11,99.76,-6.02,4.09
23.328000,-74.8750,11,99.76,-6.02,4.09
23.338000,-79.1250,11,99.76,-6.02,4.09
23.348000,-98.0000,11,99.76,-6.02,4.09
23.358000,-94.5000,11,99.76,-6.02,4.09
23.368000,-90.1250,11,99.76,-6.02,4.09
23.378000,-88.2500,11,99.76,-6.02,4.09
23.388000,-92.7500,11,99.76,-6.02,4.09
23.398000,-91.3750,11,99.76,-6.02,4.09
23.408000,-104.1250,11,99.76,-6.02,4.09
23.418000,-90.8750,11,99.76,-6.02,4.09
23.428000,-90.0000,11,99.76,-6.02,4.09
23.438000,-90.1250,11,99.76,-6.02,4.09
23.448000,-89.8750,11,99.76,-6.02,4.09
23.458000,-99.3750,11,99.76,-6.02,4.09
23.468000,-87.6250,11,99.76,-6.02,4.09
23.478000,-89.2500,11,99.76,-6.02,4.09
23.488000,-86.1250,11,99.76,-6.02,4.09
23.498000,-89.2500,11,99.76,-6.02,4.09
23.508000,-88.2500,11,99.76,-6.02,4.09
23.518000,-94.2500,11,99.76,-6.02,4.09
23.528000,-88.6250,11,99.76,-6.02,4.09
23.538000,-90.2500,11,99.76,-6.02,4.09
23.548000,-84.3750,11,99.76,-6.02,4.09
23.558000,-90.7500,11,99.76,-6.02,4.09
23.568000,-93.6250,11,99.76,-6.02,4.09
23.578000,-95.1250,11,99.76,-6.02,4.09
23.588000,-89.3750,11,99.76,-6.02,4.09
23.598000,-86.0000,11,99.76,-6.02,4.09
23.608000,-87.8750,11,99.76,-6.02,4.09
23.618000,-90.3750,11,99.76,-6.02,4.09
23.628000,-93.6250,11,99.76,-6.02,4.09
23.638000,-87.6250,11,99.76,-6.02,4.09
23.648000,-80.2500,11,99.76,-6.02,4.09
23.658000,-89.0000,11,99.76,-6.02,4.09
23.668000,-93.2500,11,99.76,-6.02,4.09
23.678000,-88.3750,11,99.76,-6.02,4.09
23.688000,-85.0000,11,99.76,-6.02,4.09
23.698000,-78.0000,11,99.76,-6.02,4.09
23.708000,-100.2500,11,99.76,-6.02,4.09
23.718000,-85.8750,11,99.76,-6.02,4.09
23.728000,-82.8750,11,99.76,-6.02,4.09
23.738000,-84.7500,11,99.76,-6.02,4.09
23.748000,-93.8750,11,99.76,-6.02,4.09
23.758000,-90.5000,11,99.76,-6.02,4.09
23.768000,-86.7500,11,99.76,-6.02,4.09
23.778000,-86.7500,11,99.76,-6.02,4.09
23.788000,-87.6250,11,99.76,-6.02,4.09
23.798000,-84.8750,11,99.76,-6.02,4.09
23.808000,-88.8750,11,99.76,-6.02,4.09
23.818000,-81.3750,11,99.76,-6.02,4.09
23.828000,-90.0000,11,99.76,-6.02,4.09
23.838000,-87.3750,11,99.76,-6.02,4.09
23.848000,-90.8750,11,99.76,-6.02,4.09
23.858000,-91.8750,11,99.76,-6.02,4.09
23.868000,-83.0000,11,99.76,-6.02,4.09
23.878000,-85.3750,11,99.76,-6.02,4.09
23.888000,-86.3750,11,99.76,-6.02,4.09
23.898000,-87.8750,11,99.76,-6.02,4.09
23.908000,-83.8750,11,99.76,-6.02,4.09
23.918000,-87.5000,11,99.76,-6.02,4.09
23.928000,-83.6250,11,99.76,-6.02,4.09
23.938000,-91.3750,11,99.76,-6.02,4.09
23.948000,-90.8750,11,99.76,-6.02,4.09
23.958000,-83.8750,11,99.76,-6.02,4.09
23.968000,-88.2500,11,99.76,-6.02,4.09
23.978000,-84.5000,11,99.76,-6.02,4.09
23.988000,-87.8750,11,99.76,-6.02,4.09
23.998000,-89.3750,11,99.76,-6.02,4.09
24.008000,-85.2500,11,99.76,-6.02,4.09
24.018000,-88.0000,11,99.76,-6.02,4.09
24.028000,-89.0000,11,99.76,-6.02,4.09
24.038000,-91.6250,11,99.76,-6.02,4.09
24.048000,-95.7500,11,99.76,-6.02,4.09
24.058000,-90.0000,11,99.76,-6.02,4.09
24.068000,-90.2500,11,99.76,-6.02,4.09
24.078000,-91.5000,11,99.76,-6.02,4.09
24.088000,-83.1250,11,99.76,-6.02,4.09
24.098000,-87.0000,11,99.76,-6.02,4.09
24.108000,-82.5000,11,99.76,-6.02,4.09
24.118000,-84.6250,11,99.76,-6.02,4.09
24.128000,-89.5000,11,99.76,-6.02,4.09
24.138000,-87.5000,11,99.76,-6.02,4.09
24.148000,-92.6250,11,99.76,-6.02,4.09
24.158000,-87.0000,11,99.76,-6.02,4.09
24.168000,-88.3750,11,99.76,-6.02,4.09
24.178000,-81.7500,11,99.76,-6.02,4.09
24.188000,-82.6250,11,99.76,-6.02,4.09
24.198000,-95.0000,11,99.76,-6.02,4.09
24.208000,-88.5000,11,99.76,-6.02,4.09
24.218000,-94.1250,11,99.76,-6.02,4.09
24.228000,-83.6250,11,99.76,-6.02,4.09
24.238000,-92.2500,11,99.76,-6.02,4.09
24.248000,-91.8750,11,99.76,-6.02,4.09
24.258000,-95.1250,11,99.76,-6.02,4.09
24.268000,-87.6250,11,99.76,-6.02,4.09
24.278000,-90.3750,11,99.76,-6.02,4.09
24.288000,-83.5000,11,99.76,-6.02,4.09
24.298000,-89.8750,11,99.76,-6.02,4.09
24.308000,-93.5000,11,99.76,-6.02,4.09
24.318000,-94.8750,11,99.76,-6.02,4.09
24.328000,-89.5000,11,99.76,-6.02,4.09
24.338000,-90.3750,11,99.76,-6.02,4.09
24.348000,-86.6250,11,99.76,-6.02,4.09
24.358000,-89.6250,11,99.76,-6.02,4.09
24.368000,-85.5000,11,99.76,-6.02,4.09
24.378000,-82.6250,11,99.76,-6.02,4.09
24.388000,-86.0000,11,99.76,-6.02,4.09
24.398000,-84.5000,11,99.76,-6.02,4.09
24.408000,-93.5000,11,99.76,-6.02,4.09
24.418000,-90.7500,11,99.76,-6.02,4.09
24.428000,-93.2500,11,99.76,-6.02,4.09
24.438000,-82.1250,11,99.76,-6.02,4.09
24.448000,-83.7500,11,99.76,-6.02,4.09
24.458000,-92.3750,11,99.76,-6.02,4.09
24.468000,-90.2500,11,99.76,-6.02,4.09
24.478000,-89.3750,11,99.76,-6.02,4.09
24.488000,-97.0000,11,99.76,-6.02,4.09
24.498000,-89.7500,11,99.76,-6.02,4.09
24.508000,-88.7500,11,99.76,-6.02,4.09
24.518000,-83.7500,11,99.76,-6.02,4.09
24.528000,-96.6250,11,99.76,-6.02,4.09
24.538000,-87.6250,11,99.76,-6.02,4.09
24.548000,-84.5000,11,99.76,-6.02,4.09
24.558000,-88.5000,11,99.76,-6.02,4.09
24.568000,-79.3750,11,99.76,-6.02,4.09
24.578000,-90.7500,11,99.76,-6.02,4.09
24.588000,-87.1250,11,99.76,-6.02,4.09
24.598000,-85.6250,11,99.76,-6.02,4.09
24.608000,-95.0000,11,99.76,-6.02,4.09
24.618000,-81.1250,11,99.76,-6.02,4.09
24.628000,-82.5000,11,99.76,-6.02,4.09
24.638000,-80.3750,11,99.76,-6.02,4.09
24.648000,-85.6250,11,99.76,-6.02,4.09
24.658000,-91.8750,11,99.76,-6.02,4.09
24.668000,-95.3750,11,99.76,-6.02,4.09
24.678000,-87.7500,11,99.76,-6.02,4.09
24.688000,-86.6250,11,99.76,-6.02,4.09
24.698000,-87.0000,11,99.76,-6.02,4.09
24.708000,-87.6250,11,99.76,-6.02,4.09
24.718000,-83.0000,11,99.76,-6.02,4.09
24.728000,-86.6250,11,99.76,-6.02,4.09
24.738000,-93.6250,11,99.76,-6.02,4.09
24.748000,-89.8750,11,99.76,-6.02,4.09
24.758000,-83.6250,11,99.76,-6.02,4.09
24.768000,-90.6250,11,99.76,-6.02,4.09
24.778000,-90.1250,11,99.76,-6.02,4.09
24.788000,-81.3750,11,99.76,-6.02,4.09
24.798000,-88.3750,11,99.76,-6.02,4.09
24.808000,-78.8750,13,124.48,-2.70,9.38
24.818000,-82.3750,13,124.48,-2.70,9.38
24.828000,-95.3750,13,124.48,-2.70,9.38
24.838000,-85.2500,13,124.48,-2.70,9.38
24.848000,-79.3750,13,124.48,-2.70,9.38
24.858000,-91.2500,13,124.48,-2.70,9.38
24.868000,-90.1250,13,124.48,-2.70,9.38
24.878000,-87.5000,13,124.48,-2.70,9.38
24.888000,-87.3750,13,124.48,-2.70,9.38
24.898000,-90.2500,13,124.48,-2.70,9.38
24.908000,-91.8750,13,124.48,-2.70,9.38
24.918000,-83.5000,13,124.48,-2.70,9.38
24.928000,-95.8750,13,124.48,-2.70,9.38
24.938000,-80.5000,13,124.48,-2.70,9.38
24.948000,-81.1250,13,124.48,-2.70,9.38
24.958000,-88.8750,13,124.48,-2.70,9.38
24.968000,-84.5000,13,124.48,-2.70,9.38
24.978000,-87.5000,13,124.48,-2.70,9.38
24.988000,-85.6250,13,124.48,-2.70,9.38
24.998000,-86.1250,13,124.48,-2.70,9.38
25.008000,-80.8750,13,124.48,-2.70,9.38
25.018000,-87.0000,13,124.48,-2.70,9.38
25.028000,-85.8750,13,124.48,-2.70,9.38
25.038000,-88.1250,13,124.48,-2.70,9.38
25.048000,-91.6250,13,124.48,-2.70,9.38
25.058000,-84.5000,13,124.48,-2.70,9.38
25.068000,-94.7500,13,124.48,-2.70,9.38
25.078000,-89.5000,13,124.48,-2.70,9.38
25.088000,-89.5000,13,124.48,-2.70,9.38
25.098000,-90.6250,13,124.48,-2.70,9.38
25.108000,-81.3750,13,124.48,-2.70,9.38
25.118000,-90.1250,13,124.48,-2.70,9.38
25.128000,-90.0000,13,124.48,-2.70,9.38
25.138000,-92.3750,13,124.48,-2.70,9.38
25.148000,-91.2500,13,124.48,-2.70,9.38
25.158000,-90.2500,13,124.48,-2.70,9.38
25.168000,-85.1250,13,124.48,-2.70,9.38
25.178000,-89.0000,13,124.48,-2.70,9.38
25.188000,-90.0000,13,124.48,-2.70,9.38
25.198000,-89.6250,13,124.48,-2.70,9.38
25.208000,-97.3750,13,124.48,-2.70,9.38
25.218000,-86.2500,13,124.48,-2.70,9.38
25.228000,-93.6250,13,124.48,-2.70,9.38
25.238000,-89.2500,13,124.48,-2.70,9.38
25.248000,-85.0000,13,124.48,-2.70,9.38
25.258000,-97.3750,13,124.48,-2.70,9.38
25.268000,-85.6250,13,124.48,-2.70,9.38
25.278000,-82.1250,13,124.48,-2.70,9.38
25.288000,-86.2500,13,124.48,-2.70,9.38
25.298000,-81.2500,13,124.48,-2.70,9.38
25.308000,-86.5000,13,124.48,-2.70,9.38
25.318000,-85.8750,13,124.48,-2.70,9.38
25.328000,-84.0000,13,124.48,-2.70,9.38
25.338000,-86.1250,13,124.48,-2.70,9.38
25.348000,-88.6250,13,124.48,-2.70,9.38
25.358000,-88.8750,13,124.48,-2.70,9.38
25.368000,-92.6250,13,124.48,-2.70,9.38
25.378000,-91.1250,13,124.48,-2.70,9.38
25.388000,-87.8750,13,124.48,-2.70,9.38
25.398000,-81.8750,13,124.48,-2.70,9.38
25.408000,-89.2500,13,124.48,-2.70,9.38
25.418000,-82.5000,13,124.48,-2.70,9.38
25.428000,-87.2500,13,124.48,-2.70,9.38
25.438000,-80.5000,13,124.48,-2.70,9.38
25.448000,-91.1250,13,124.48,-2.70,9.38
25.458000,-89.5000,13,124.48,-2.70,9.38
25.468000,-86.2500,13,124.48,-2.70,9.38
25.478000,-92.3750,13,124.48,-2.70,9.38
25.488000,-84.5000,13,124.48,-2.70,9.38
25.498000,-91.6250,13,124.48,-2.70,9.38
25.508000,-87.7500,13,124.48,-2.70,9.38
25.518000,-88.7500,13,124.48,-2.70,9.38
25.528000,-79.2500,13,124.48,-2.70,9.38
25.538000,-80.7500,13,124.48,-2.70,9.38
25.548000,-82.1250,13,124.48,-2.70,9.38
25.558000,-90.1250,13,124.48,-2.70,9.38
25.568000,-81.5000,13,124.48,-2.70,9.38
25.578000,-93.2500,13,124.48,-2.70,9.38
25.588000,-84.3750,13,124.48,-2.70,9.38
25.598000,-91.6250,13,124.48,-2.70,9.38
25.608000,-85.7500,13,124.48,-2.70,9.38
25.618000,-89.0000,13,124.48,-2.70,9.38
25.628000,-90.3750,13,124.48,-2.70,9.38
25.638000,-95.1250,13,124.48,-2.70,9.38
25.648000,-82.7500,13,124.48,-2.70,9.38
25.658000,-87.3750,13,124.48,-2.70,9.38
25.668000,-88.0000,13,124.48,-2.70,9.38
25.678000,-82.3750,13,124.48,-2.70,9.38
25.688000,-87.3750,13,124.48,-2.70,9.38
25.698000,-83.5000,13,124.48,-2.70,9.38
25.708000,-89.8750,13,124.48,-2.70,9.38
25.718000,-88.7500,13,124.48,-2.70,9.38
25.728000,-92.3750,13,124.48,-2.70,9.38
25.738000,-87.6250,13,124.48,-2.70,9.38
25.748000,-77.8750,13,124.48,-2.70,9.38
25.758000,-88.0000,13,124.48,-2.70,9.38
25.768000,-83.2500,13,124.48,-2.70,9.38
25.778000,-90.8750,13,124.48,-2.70,9.38
25.788000,-85.2500,13,124.48,-2.70,9.38
25.798000,-95.2500,13,124.48,-2.70,9.38
25.808000,-88.0000,13,124.48,-2.70,9.38
25.818000,-92.7500,13,124.48,-2.70,9.38
25.828000,-91.2500,13,124.48,-2.70,9.38
25.838000,-90.6250,13,124.48,-2.70,9.38
25.848000,-95.0000,13,124.48,-2.70,9.38
25.858000,-88.1250,13,124.48,-2.70,9.38
25.868000,-86.0000,13,124.48,-2.70,9.38
25.878000,-88.2500,13,124.48,-2.70,9.38
25.888000,-78.5000,13,124.48,-2.70,9.38
25.898000,-85.2500,13,124.48,-2.70,9.38
25.908000,-94.2500,13,124.48,-2.70,9.38
25.918000,-86.2500,13,124.48,-2.70,9.38
25.928000,-95.1250,13,124.48,-2.70,9.38
25.938000,-91.8750,13,124.48,-2.70,9.38
25.948000,-86.1250,13,124.48,-2.70,9.38
25.958000,-81.3750,13,124.48,-2.70,9.38
25.968000,-89.3750,13,124.48,-2.70,9.38
25.978000,-83.3750,13,124.48,-2.70,9.38
25.988000,-91.0000,13,124.48,-2.70,9.38
25.998000,-94.2500,13,124.48,-2.70,9.38
26.008000,-90.2500,13,124.48,-2.70,9.38
26.018000,-93.3750,13,124.48,-2.70,9.38
26.028000,-89.1250,13,124.48,-2.70,9.38
26.038000,-94.7500,13,124.48,-2.70,9.38
26.048000,-89.7500,13,124.48,-2.70,9.38
26.058000,-92.3750,13,124.48,-2.70,9.38
26.068000,-81.8750,13,124.48,-2.70,9.38
26.078000,-89.7500,13,124.48,-2.70,9.38
26.088000,-92.7500,13,124.48,-2.70,9.38
26.098000,-89.3750,13,124.48,-2.70,9.38
26.108000,-95.8750,13,124.48,-2.70,9.38
26.118000,-86.0000,13,124.48,-2.70,9.38
26.128000,-91.0000,13,124.48,-2.70,9.38
26.138000,-84.2500,13,124.48,-2.70,9.38
26.148000,-87.8750,13,124.48,-2.70,9.38
26.158000,-92.1250,13,124.48,-2.70,9.38
26.168000,-88.6250,13,124.48,-2.70,9.38
26.178000,-92.2500,13,124.48,-2.70,9.38
26.188000,-82.2500,13,124.48,-2.70,9.38
26.198000,-91.7500,13,124.48,-2.70,9.38
26.208000,-87.6250,13,124.48,-2.70,9.38
26.218000,-90.0000,13,124.48,-2.70,9.38
26.228000,-86.6250,13,124.48,-2.70,9.38
26.238000,-86.8750,13,124.48,-2.70,9.38
26.248000,-87.2500,13,124.48,-2.70,9.38
26.258000,-83.7500,13,124.48,-2.70,9.38
26.268000,-84.8750,13,124.48,-2.70,9.38
26.278000,-85.5000,13,124.48,-2.70,9.38
26.288000,-83.1250,13,124.48,-2.70,9.38
26.298000,-89.0000,13,124.48,-2.70,9.38
26.308000,-88.3750,13,124.48,-2.70,9.38
26.318000,-89.8750,13,124.48,-2.70,9.38
26.328000,-84.5000,13,124.48,-2.70,9.38
26.338000,-86.8750,13,124.48,-2.70,9.38
26.348000,-78.2500,13,124.48,-2.70,9.38
26.358000,-90.0000,13,124.48,-2.70,9.38
26.368000,-81.6250,13,124.48,-2.70,9.38
26.378000,-90.7500,13,124.48,-2.70,9.38
26.388000,-81.1250,13,124.48,-2.70,9.38
26.398000,-92.2500,13,124.48,-2.70,9.38
26.408000,-88.7500,13,124.48,-2.70,9.38
26.418000,-95.1250,13,124.48,-2.70,9.38
26.428000,-88.6250,13,124.48,-2.70,9.38
26.438000,-95.7500,13,124.48,-2.70,9.38
26.448000,-83.0000,13,124.48,-2.70,9.38
26.458000,-85.5000,13,124.48,-2.70,9.38
26.468000,-86.0000,13,124.48,-2.70,9.38
26.478000,-93.7500,13,124.48,-2.70,9.38
26.488000,-83.3750,13,124.48,-2.70,9.38
26.498000,-92.0000,13,124.48,-2.70,9.38
26.508000,-87.0000,13,124.48,-2.70,9.38
26.518000,-93.6250,13,124.48,-2.70,9.38
26.528000,-88.0000,13,124.48,-2.70,9.38
26.538000,-81.8750,13,124.48,-2.70,9.38
26.548000,-89.6250,13,124.48,-2.70,9.38
26.558000,-76.6250,13,124.48,-2.70,9.38
26.568000,-88.8750,13,124.48,-2.70,9.38
26.578000,-79.3750,13,124.48,-2.70,9.38
26.588000,-84.7500,13,124.48,-2.70,9.38
26.598000,-96.1250,13,124.48,-2.70,9.38
26.608000,-92.5000,13,124.48,-2.70,9.38
26.618000,-87.7500,13,124.48,-2.70,9.38
26.628000,-92.0000,13,124.48,-2.70,9.38
26.638000,-80.5000,13,124.48,-2.70,9.38
26.648000,-91.8750,13,124.48,-2.70,9.38
26.658000,-89.5000,13,124.48,-2.70,9.38
26.668000,-90.8750,13,124.48,-2.70,9.38
26.678000,-83.6250,13,124.48,-2.70,9.38
26.688000,-90.7500,13,124.48,-2.70,9.38
26.698000,-81.5000,13,124.48,-2.70,9.38
26.708000,-89.5000,13,124.48,-2.70,9.38
26.718000,-93.6250,13,124.48,-2.70,9.38
26.728000,-89.5000,13,124.48,-2.70,9.38
26.738000,-88.8750,13,124.48,-2.70,9.38
26.748000,-84.7500,13,124.48,-2.70,9.38
26.758000,-94.7500,13,124.48,-2.70,9.38
26.768000,-88.7500,13,124.48,-2.70,9.38
26.778000,-86.5000,13,124.48,-2.70,9.38
26.788000,-93.1250,13,124.48,-2.70,9.38
26.798000,-91.1250,13,124.48,-2.70,9.38
26.808000,-82.5000,13,124.48,-2.70,9.38
26.818000,-94.2500,13,124.48,-2.70,9.38
26.828000,-85.6250,13,124.48,-2.70,9.38
26.838000,-95.3750,13,124.48,-2.70,9.38
26.848000,-92.5000,13,124.48,-2.70,9.38
26.858000,-89.3750,13,124.48,-2.70,9.38
26.868000,-81.7500,13,124.48,-2.70,9.38
26.878000,-85.5000,13,124.48,-2.70,9.38
26.888000,-86.8750,13,124.48,-2.70,9.38
26.898000,-86.8750,13,124.48,-2.70,9.38
26.908000,-88.1250,13,124.48,-2.70,9.38
26.918000,-88.5000,13,124.48,-2.70,9.38
26.928000,-82.8750,13,124.48,-2.70,9.38
26.938000,-88.5000,13,124.48,-2.70,9.38
26.948000,-92.1250,13,124.48,-2.70,9.38
26.958000,-92.2500,13,124.48,-2.70,9.38
26.968000,-92.2500,13,124.48,-2.70,9.38
26.978000,-93.1250,13,124.48,-2.70,9.38
26.988000,-84.1250,13,124.48,-2.70,9.38
26.998000,-91.3750,13,124.48,-2.70,9.38
27.008000,-91.0000,13,124.48,-2.70,9.38
27.018000,-81.6250,13,124.48,-2.70,9.38
27.028000,-93.5000,13,124.48,-2.70,9.38
27.038000,-87.0000,13,124.48,-2.70,9.38
27.048000,-91.1250,13,124.48,-2.70,9.38
27.058000,-81.6250,13,124.48,-2.70,9.38
27.068000,-87.8750,13,124.48,-2.70,9.38
27.078000,-80.8750,13,124.48,-2.70,9.38
27.088000,-85.8750,13,124.48,-2.70,9.38
27.098000,-89.1250,13,124.48,-2.70,9.38
27.108000,-85.1250,13,124.48,-2.70,9.38
27.118000,-86.8750,13,124.48,-2.70,9.38
27.128000,-90.1250,13,124.48,-2.70,9.38
27.138000,-90.3750,13,124.48,-2.70,9.38
27.148000,-91.6250,13,124.48,-2.70,9.38
27.158000,-86.7500,13,124.48,-2.70,9.38
27.168000,-87.0000,13,124.48,-2.70,9.38
27.178000,-86.3750,13,124.48,-2.70,9.38
27.188000,-82.6250,13,124.48,-2.70,9.38
27.198000,-86.3750,13,124.48,-2.70,9.38
27.208000,-91.7500,13,124.48,-2.70,9.38
27.218000,-90.3750,13,124.48,-2.70,9.38
27.228000,-91.8750,13,124.48,-2.70,9.38
27.238000,-90.2500,13,124.48,-2.70,9.38
27.248000,-93.8750,13,124.48,-2.70,9.38
27.258000,-88.6250,13,124.48,-2.70,9.38
27.268000,-90.2500,13,124.48,-2.70,9.38
27.278000,-89.8750,13,124.48,-2.70,9.38
27.288000,-84.5000,13,124.48,-2.70,9.38
27.298000,-84.1250,13,124.48,-2.70,9.38
27.308000,-88.3750,13,124.48,-2.70,9.38
27.318000,-88.5000,13,124.48,-2.70,9.38
27.328000,-91.6250,13,124.48,-2.70,9.38
27.338000,-92.0000,13,124.48,-2.70,9.38
27.348000,-90.2500,13,124.48,-2.70,9.38
27.358000,-84.8750,13,124.48,-2.70,9.38
27.368000,-87.8750,13,124.48,-2.70,9.38
27.378000,-90.3750,13,124.48,-2.70,9.38
27.388000,-87.3750,13,124.48,-2.70,9.38
27.398000,-88.5000,13,124.48,-2.70,9.38
27.408000,-90.2500,13,124.48,-2.70,9.38
27.418000,-85.3750,13,124.48,-2.70,9.38
27.428000,-91.1250,13,124.48,-2.70,9.38
27.438000,-84.6250,13,124.48,-2.70,9.38
27.448000,-87.5000,13,124.48,-2.70,9.38
27.458000,-94.0000,13,124.48,-2.70,9.38
27.468000,-86.7500,13,124.48,-2.70,9.38
27.478000,-86.3750,13,124.48,-2.70,9.38
27.488000,-90.8750,13,124.48,-2.70,9.38
27.498000,-82.8750,13,124.48,-2.70,9.38
27.508000,-86.2500,13,124.48,-2.70,9.38
27.518000,-86.1250,13,124.48,-2.70,9.38
27.528000,-88.5000,13,124.48,-2.70,9.38
27.538000,-88.3750,13,124.48,-2.70,9.38
27.548000,-89.3750,13,124.48,-2.70,9.38
27.558000,-88.7500,13,124.48,-2.70,9.38
27.568000,-86.7500,13,124.48,-2.70,9.38
27.578000,-86.3750,13,124.48,-2.70,9.38
27.588000,-88.1250,13,124.48,-2.70,9.38
27.598000,-88.6250,13,124.48,-2.70,9.38
27.608000,-88.6250,13,124.48,-2.70,9.38
27.618000,-88.2500,13,124.48,-2.70,9.38
27.628000,-89.5000,13,124.48,-2.70,9.38
27.638000,-89.3750,13,124.48,-2.70,9.38
27.648000,-89.5000,13,124.48,-2.70,9.38
27.658000,-86.5000,13,124.48,-2.70,9.38
27.668000,-88.1250,13,124.48,-2.70,9.38
27.678000,-86.1250,13,124.48,-2.70,9.38
27.688000,-86.8750,13,124.48,-2.70,9.38
27.698000,-88.2500,13,124.48,-2.70,9.38
27.708000,-86.1250,13,124.48,-2.70,9.38
27.718000,-89.1250,13,124.48,-2.70,9.38
27.728000,-83.7500,13,124.48,-2.70,9.38
27.738000,-89.1250,13,124.48,-2.70,9.38
27.748000,-85.2500,13,124.48,-2.70,9.38
27.758000,-89.8750,13,124.48,-2.70,9.38
27.768000,-84.7500,13,124.48,-2.70,9.38
27.778000,-88.6250,13,124.48,-2.70,9.38
27.788000,-85.7500,13,124.48,-2.70,9.38
27.798000,-84.8750,13,124.48,-2.70,9.38
27.808000,-84.7500,13,124.48,-2.70,9.38
27.818000,-87.0000,13,124.48,-2.70,9.38
27.828000,-83.8750,13,124.48,-2.70,9.38
27.838000,-91.0000,13,124.48,-2.70,9.38
27.848000,-86.2500,13,124.48,-2.70,9.38
27.858000,-87.1250,13,124.48,-2.70,9.38
27.868000,-83.5000,13,124.48,-2.70,9.38
27.878000,-86.5000,13,124.48,-2.70,9.38
27.888000,-84.8750,13,124.48,-2.70,9.38
27.898000,-93.2500,13,124.48,-2.70,9.38
27.908000,-90.6250,13,124.48,-2.70,9.38
27.918000,-88.8750,13,124.48,-2.70,9.38
27.928000,-86.0000,13,124.48,-2.70,9.38
27.938000,-46.7500,13,124.48,-2.70,9.38
27.948000,-58.5000,13,124.48,-2.70,9.38
27.958000,-94.0000,13,124.48,-2.70,9.38
27.968000,-86.6250,13,124.48,-2.70,9.38
27.978000,-96.1250,13,124.48,-2.70,9.38
27.988000,-76.0000,13,124.48,-2.70,9.38
27.998000,-83.6250,13,124.48,-2.70,9.38
28.008000,-54.2500,13,124.48,-2.70,9.38
28.018000,-84.1250,13,124.48,-2.70,9.38
28.028000,-99.0000,13,124.48,-2.70,9.38
28.038000,-89.6250,13,124.48,-2.70,9.38
28.048000,-89.0000,13,124.48,-2.70,9.38
28.058000,-94.1250,13,124.48,-2.70,9.38
28.068000,-89.0000,13,124.48,-2.70,9.38
28.078000,-85.6250,13,124.48,-2.70,9.38
28.088000,-92.1250,13,124.48,-2.70,9.38
28.098000,-89.7500,13,124.48,-2.70,9.38
28.108000,-85.6250,13,124.48,-2.70,9.38
28.118000,-91.2500,13,124.48,-2.70,9.38
28.128000,-91.6250,13,124.48,-2.70,9.38
28.138000,-92.5000,13,124.48,-2.70,9.38
28.148000,-86.1250,13,124.48,-2.70,9.38
28.158000,-94.1250,13,124.48,-2.70,9.38
28.168000,-85.8750,13,124.48,-2.70,9.38
28.178000,-87.5000,13,124.48,-2.70,9.38
28.188000,-85.3750,13,124.48,-2.70,9.38
28.198000,-88.1250,13,124.48,-2.70,9.38
28.208000,-85.2500,13,124.48,-2.70,9.38
28.218000,-88.6250,13,124.48,-2.70,9.38
28.228000,-89.2500,13,124.48,-2.70,9.38
28.238000,-86.8750,13,124.48,-2.70,9.38
28.248000,-85.6250,13,124.48,-2.70,9.38
28.258000,-88.6250,13,124.48,-2.70,9.38
28.268000,-88.7500,13,124.48,-2.70,9.38
28.278000,-86.2500,13,124.48,-2.70,9.38
28.288000,-89.3750,13,124.48,-2.70,9.38
28.298000,-87.5000,13,124.48,-2.70,9.38
28.308000,-88.0000,13,124.48,-2.70,9.38
28.318000,-88.3750,13,124.48,-2.70,9.38
28.328000,-87.3750,13,124.48,-2.70,9.38
28.338000,-83.8750,13,124.48,-2.70,9.38
28.348000,-85.3750,13,124.48,-2.70,9.38
28.358000,-87.8750,13,124.48,-2.70,9.38
28.368000,-86.8750,13,124.48,-2.70,9.38
28.378000,-86.8750,13,124.48,-2.70,9.38
28.388000,-87.8750,13,124.48,-2.70,9.38
28.398000,-85.8750,13,124.48,-2.70,9.38
28.408000,-85.8750,13,124.48,-2.70,9.38
28.418000,-87.1250,13,124.48,-2.70,9.38
28.428000,-86.5000,13,124.48,-2.70,9.38
28.438000,-87.2500,13,124.48,-2.70,9.38
28.448000,-86.7500,13,124.48,-2.70,9.38
28.458000,-87.3750,13,124.48,-2.70,9.38
28.468000,-86.1250,13,124.48,-2.70,9.38
28.478000,-85.7500,13,124.48,-2.70,9.38
28.488000,-89.6250,13,124.48,-2.70,9.38
28.498000,-86.2500,13,124.48,-2.70,9.38
28.508000,-87.7500,13,124.48,-2.70,9.38
28.518000,-87.5000,13,124.48,-2.70,9.38
28.528000,-86.1250,13,124.48,-2.70,9.38
28.538000,-87.8750,13,124.48,-2.70,9.38
28.548000,-86.7500,13,124.48,-2.70,9.38
28.558000,-90.1250,13,124.48,-2.70,9.38
28.568000,-84.0000,13,124.48,-2.70,9.38
28.578000,-84.2500,13,124.48,-2.70,9.38
28.588000,-85.1250,13,124.48,-2.70,9.38
28.598000,-87.2500,13,124.48,-2.70,9.38
28.608000,-86.1250,13,124.48,-2.70,9.38
28.618000,-83.8750,13,124.48,-2.70,9.38
28.628000,-83.7500,13,124.48,-2.70,9.38
28.638000,-86.5000,13,124.48,-2.70,9.38
28.648000,-81.8750,13,124.48,-2.70,9.38
28.658000,-90.1250,13,124.48,-2.70,9.38
28.668000,-84.7500,13,124.48,-2.70,9.38
28.678000,-89.5000,13,124.48,-2.70,9.38
28.688000,-87.3750,13,124.48,-2.70,9.38
28.698000,-89.6250,13,124.48,-2.70,9.38
28.708000,-84.8750,13,124.48,-2.70,9.38
28.718000,-83.2500,13,124.48,-2.70,9.38
28.728000,-89.1250,13,124.48,-2.70,9.38
28.738000,-91.2500,13,124.48,-2.70,9.38
28.748000,-87.1250,13,124.48,-2.70,9.38
28.758000,-83.0000,13,124.48,-2.70,9.38
28.768000,-83.1250,13,124.48,-2.70,9.38
28.778000,-88.1250,13,124.48,-2.70,9.38
28.788000,-85.2500,13,124.48,-2.70,9.38
28.798000,-86.6250,13,124.48,-2.70,9.38
28.808000,-88.2500,13,124.48,-2.70,9.38
28.818000,-86.5000,13,124.48,-2.70,9.38
28.828000,-87.5000,13,124.48,-2.70,9.38
28.838000,-84.7500,13,124.48,-2.70,9.38
28.848000,-87.5000,13,124.48,-2.70,9.38
28.858000,-83.2500,13,124.48,-2.70,9.38
28.868000,-69.8750,13,124.48,-2.70,9.38
28.878000,-62.0000,13,124.48,-2.70,9.38
28.888000,-36.2500,13,124.48,-2.70,9.38
28.898000,-90.2500,13,124.48,-2.70,9.38
28.908000,-87.7500,13,124.48,-2.70,9.38
28.918000,-88.5000,13,124.48,-2.70,9.38
28.928000,-90.3750,13,124.48,-2.70,9.38
28.938000,-89.0000,13,124.48,-2.70,9.38
28.948000,-89.2500,13,124.48,-2.70,9.38
28.958000,-89.5000,13,124.48,-2.70,9.38
28.968000,-88.0000,13,124.48,-2.70,9.38
28.978000,-87.5000,13,124.48,-2.70,9.38
28.988000,-88.6250,13,124.48,-2.70,9.38
28.998000,-87.8750,13,124.48,-2.70,9.38
29.008000,-87.6250,13,124.48,-2.70,9.38
29.018000,-86.8750,13,124.48,-2.70,9.38
29.028000,-88.5000,13,124.48,-2.70,9.38
29.038000,-88.3750,13,124.48,-2.70,9.38
29.048000,-84.5000,13,124.48,-2.70,9.38
29.058000,-87.2500,13,124.48,-2.70,9.38
29.068000,-82.2500,15,124.48,-4.77,11.91
29.078000,-87.6250,15,124.48,-4.77,11.91
29.088000,-84.8750,15,124.48,-4.77,11.91
29.098000,-89.0000,15,124.48,-4.77,11.91
29.108000,-82.7500,15,124.48,-4.77,11.91
29.118000,-83.7500,15,124.48,-4.77,11.91
29.128000,-85.8750,15,124.48,-4.77,11.91
29.138000,-87.2500,15,124.48,-4.77,11.91
29.148000,-79.8750,15,124.48,-4.77,11.91
29.158000,-84.8750,15,124.48,-4.77,11.91
29.168000,-90.1250,15,124.48,-4.77,11.91
29.178000,-84.6250,15,124.48,-4.77,11.91
29.188000,-90.3750,15,124.48,-4.77,11.91
29.198000,-87.7500,15,124.48,-4.77,11.91
29.208000,-81.0000,15,124.48,-4.77,11.91
29.218000,-85.8750,15,124.48,-4.77,11.91
29.228000,-83.3750,15,124.48,-4.77,11.91
29.238000,-87.2500,15,124.48,-4.77,11.91
29.248000,-84.6250,15,124.48,-4.77,11.91
29.258000,-85.6250,15,124.48,-4.77,11.91
29.268000,-86.1250,15,124.48,-4.77,11.91
29.278000,-84.1250,15,124.48,-4.77,11.91
29.288000,-84.5000,15,124.48,-4.77,11.91
29.298000,-86.3750,15,124.48,-4.77,11.91
29.308000,-88.1250,15,124.48,-4.77,11.91
29.318000,-87.8750,15,124.48,-4.77,11.91
29.328000,-88.6250,15,124.48,-4.77,11.91
29.338000,-87.8750,15,124.48,-4.77,11.91
29.348000,-87.7500,15,124.48,-4.77,11.91
29.358000,-88.7500,15,124.48,-4.77,11.91
29.368000,-86.0000,15,124.48,-4.77,11.91
29.378000,-87.6250,15,124.48,-4.77,11.91
29.388000,-87.0000,15,124.48,-4.77,11.91
29.398000,-87.1250,15,124.48,-4.77,11.91
29.408000,-87.1250,15,124.48,-4.77,11.91
29.418000,-84.7500,15,124.48,-4.77,11.91
29.428000,-85.3750,15,124.48,-4.77,11.91
29.438000,-84.8750,15,124.48,-4.77,11.91
29.448000,-88.6250,15,124.48,-4.77,11.91
29.458000,-86.3750,15,124.48,-4.77,11.91
29.468000,-88.2500,15,124.48,-4.77,11.91
29.478000,-85.2500,15,124.48,-4.77,11.91
29.488000,-86.1250,15,124.48,-4.77,11.91
29.498000,-85.2500,15,124.48,-4.77,11.91
29.508000,-86.3750,15,124.48,-4.77,11.91
29.518000,-89.1250,15,124.48,-4.77,11.91
29.528000,-87.5000,15,124.48,-4.77,11.91
29.538000,-88.6250,15,124.48,-4.77,11.91
29.548000,-87.3750,15,124.48,-4.77,11.91
29.558000,-87.5000,15,124.48,-4.77,11.91
29.568000,-87.7500,15,124.48,-4.77,11.91
29.578000,-85.7500,15,124.48,-4.77,11.91
29.588000,-89.1250,15,124.48,-4.77,11.91
29.598000,-88.3750,15,124.48,-4.77,11.91
29.608000,-85.5000,15,124.48,-4.77,11.91
29.618000,-84.8750,15,124.48,-4.77,11.91
29.628000,-88.8750,15,124.48,-4.77,11.91
29.638000,-88.1250,15,124.48,-4.77,11.91
29.648000,-91.2500,15,124.48,-4.77,11.91
29.658000,-88.8750,15,124.48,-4.77,11.91
29.668000,-83.1250,15,124.48,-4.77,11.91
29.678000,-92.3750,15,124.48,-4.77,11.91
29.688000,-96.3750,15,124.48,-4.77,11.91
29.698000,-91.8750,15,124.48,-4.77,11.91
29.708000,-84.2500,15,124.48,-4.77,11.91
29.718000,-85.5000,15,124.48,-4.77,11.91
29.728000,-87.1250,15,124.48,-4.77,11.91
29.738000,-87.5000,15,124.48,-4.77,11.91
29.748000,-86.8750,15,124.48,-4.77,11.91
29.758000,-86.2500,15,124.48,-4.77,11.91
29.768000,-86.8750,15,124.48,-4.77,11.91
29.778000,-83.7500,15,124.48,-4.77,11.91
29.788000,-94.0000,15,124.48,-4.77,11.91
29.798000,-87.8750,15,124.48,-4.77,11.91
29.808000,-86.0000,15,124.48,-4.77,11.91
29.818000,-85.5000,15,124.48,-4.77,11.91
29.828000,-84.2500,15,124.48,-4.77,11.91
29.838000,-91.2500,15,124.48,-4.77,11.91
29.848000,-80.2500,15,124.48,-4.77,11.91
29.858000,-86.3750,15,124.48,-4.77,11.91
29.868000,-84.0000,15,124.48,-4.77,11.91
29.878000,-89.0000,15,124.48,-4.77,11.91
29.888000,-84.0000,15,124.48,-4.77,11.91
29.898000,-85.6250,15,124.48,-4.77,11.91
29.908000,-81.5000,15,124.48,-4.77,11.91
29.918000,-83.6250,15,124.48,-4.77,11.91
29.928000,-89.1250,15,124.48,-4.77,11.91
29.938000,-87.0000,15,124.48,-4.77,11.91
29.948000,-81.3750,15,124.48,-4.77,11.91
29.958000,-90.7500,15,124.48,-4.77,11.91
29.968000,-86.0000,15,124.48,-4.77,11.91
29.978000,-83.8750,15,124.48,-4.77,11.91
29.988000,-88.7500,15,124.48,-4.77,11.91
29.998000,-86.1250,15,124.48,-4.77,11.91
30.008000,-89.2500,15,124.48,-4.77,11.91
30.018000,-85.3750,15,124.48,-4.77,11.91
30.028000,-88.2500,15,124.48,-4.77,11.91
30.038000,-84.7500,15,124.48,-4.77,11.91
30.048000,-85.5000,15,124.48,-4.77,11.91
30.058000,-88.2500,15,124.48,-4.77,11.91
30.068000,-87.7500,15,124.48,-4.77,11.91
30.078000,-88.7500,15,124.48,-4.77,11.91
30.088000,-87.2500,15,124.48,-4.77,11.91
30.098000,-84.7500,15,124.48,-4.77,11.91
30.108000,-85.2500,15,124.48,-4.77,11.91
30.118000,-87.7500,15,124.48,-4.77,11.91
30.128000,-88.1250,15,124.48,-4.77,11.91
30.138000,-87.6250,15,124.48,-4.77,11.91
30.148000,-85.7500,15,124.48,-4.77,11.91
30.158000,-84.8750,15,124.48,-4.77,11.91
30.168000,-86.2500,15,124.48,-4.77,11.91
30.178000,-87.8750,15,124.48,-4.77,11.91
30.188000,-87.5000,15,124.48,-4.77,11.91
30.198000,-88.1250,15,124.48,-4.77,11.91
30.208000,-86.0000,15,124.48,-4.77,11.91
30.218000,-85.7500,15,124.48,-4.77,11.91
30.228000,-86.7500,15,124.48,-4.77,11.91
30.238000,-86.1250,15,124.48,-4.77,11.91
30.248000,-86.2500,15,124.48,-4.77,11.91
30.258000,-88.3750,15,124.48,-4.77,11.91
30.268000,-85.2500,15,124.48,-4.77,11.91
30.278000,-85.6250,15,124.48,-4.77,11.91
30.288000,-86.2500,15,124.48,-4.77,11.91
30.298000,-85.1250,15,124.48,-4.77,11.91
30.308000,-88.8750,15,124.48,-4.77,11.91
30.318000,-88.0000,15,124.48,-4.77,11.91
30.328000,-87.2500,15,124.48,-4.77,11.91
30.338000,-84.5000,15,124.48,-4.77,11.91
30.348000,-85.3750,15,124.48,-4.77,11.91
30.358000,-85.7500,15,124.48,-4.77,11.91
30.368000,-86.2500,15,124.48,-4.77,11.91
30.378000,-85.3750,15,124.48,-4.77,11.91
30.388000,-85.1250,15,124.48,-4.77,11.91
30.398000,-87.1250,15,124.48,-4.77,11.91
30.408000,-85.0000,15,124.48,-4.77,11.91
30.418000,-83.7500,15,124.48,-4.77,11.91
30.428000,-86.1250,15,124.48,-4.77,11.91
30.438000,-85.7500,15,124.48,-4.77,11.91
30.448000,-87.1250,15,124.48,-4.77,11.91
30.458000,-86.1250,15,124.48,-4.77,11.91
30.468000,-86.8750,15,124.48,-4.77,11.91
30.478000,-87.3750,15,124.48,-4.77,11.91
30.488000,-86.8750,15,124.48,-4.77,11.91
30.498000,-87.2500,15,124.48,-4.77,11.91
30.508000,-84.0000,15,124.48,-4.77,11.91
30.518000,-87.0000,15,124.48,-4.77,11.91
30.528000,-86.1250,15,124.48,-4.77,11.91
30.538000,-86.1250,15,124.48,-4.77,11.91
30.548000,-88.6250,15,124.48,-4.77,11.91
30.558000,-90.1250,15,124.48,-4.77,11.91
30.568000,-87.2500,15,124.48,-4.77,11.91
30.578000,-89.3750,15,124.48,-4.77,11.91
30.588000,-89.8750,15,124.48,-4.77,11.91
30.598000,-83.7500,15,124.48,-4.77,11.91
30.608000,-86.3750,15,124.48,-4.77,11.91
30.618000,-85.1250,15,124.48,-4.77,11.91
30.628000,-88.5000,15,124.48,-4.77,11.91
30.638000,-89.2500,15,124.48,-4.77,11.91
30.648000,-85.7500,15,124.48,-4.77,11.91
30.658000,-89.6250,15,124.48,-4.77,11.91
30.668000,-84.5000,15,124.48,-4.77,11.91
30.678000,-83.1250,15,124.48,-4.77,11.91
30.688000,-85.7500,15,124.48,-4.77,11.91
30.698000,-87.1250,15,124.48,-4.77,11.91
30.708000,-86.2500,15,124.48,-4.77,11.91
30.718000,-83.5000,15,124.48,-4.77,11.91
30.728000,-87.5000,15,124.48,-4.77,11.91
30.738000,-88.5000,15,124.48,-4.77,11.91
30.748000,-86.3750,15,124.48,-4.77,11.91
30.758000,-84.1250,15,124.48,-4.77,11.91
30.768000,-86.0000,15,124.48,-4.77,11.91
30.778000,-85.2500,15,124.48,-4.77,11.91
30.788000,-84.6250,15,124.48,-4.77,11.91
30.798000,-85.2500,15,124.48,-4.77,11.91
30.808000,-86.3750,15,124.48,-4.77,11.91
30.818000,-85.0000,15,124.48,-4.77,11.91
30.828000,-89.2500,15,124.48,-4.77,11.91
30.838000,-86.5000,15,124.48,-4.77,11.91
30.848000,-86.1250,15,124.48,-4.77,11.91
30.858000,-85.3750,15,124.48,-4.77,11.91
30.868000,-86.2500,15,124.48,-4.77,11.91
30.878000,-84.5000,15,124.48,-4.77,11.91
30.888000,-85.2500,15,124.48,-4.77,11.91
30.898000,-86.0000,15,124.48,-4.77,11.91
30.908000,-85.3750,15,124.48,-4.77,11.91
30.918000,-87.3750,15,124.48,-4.77,11.91
30.928000,-85.8750,15,124.48,-4.77,11.91
30.938000,-86.8750,15,124.48,-4.77,11.91
30.948000,-86.1250,15,124.48,-4.77,11.91
30.958000,-87.1250,15,124.48,-4.77,11.91
30.968000,-85.2500,15,124.48,-4.77,11.91
30.978000,-89.1250,15,124.48,-4.77,11.91
30.988000,-86.6250,15,124.48,-4.77,11.91
30.998000,-85.5000,15,124.48,-4.77,11.91
31.008000,-88.1250,15,124.48,-4.77,11.91
31.018000,-85.3750,15,124.48,-4.77,11.91
31.028000,-84.3750,15,124.48,-4.77,11.91
31.038000,-86.0000,15,124.48,-4.77,11.91
31.048000,-87.0000,15,124.48,-4.77,11.91
31.058000,-87.5000,15,124.48,-4.77,11.91
31.068000,-86.3750,15,124.48,-4.77,11.91
31.078000,-87.3750,15,124.48,-4.77,11.91
31.088000,-87.6250,15,124.48,-4.77,11.91
31.098000,-87.3750,15,124.48,-4.77,11.91
31.108000,-85.5000,15,124.48,-4.77,11.91
31.118000,-86.3750,15,124.48,-4.77,11.91
31.128000,-85.6250,15,124.48,-4.77,11.91
31.138000,-85.2500,15,124.48,-4.77,11.91
31.148000,-87.1250,15,124.48,-4.77,11.91
31.158000,-85.8750,15,124.48,-4.77,11.91
31.168000,-87.6250,15,124.48,-4.77,11.91
31.178000,-86.7500,15,124.48,-4.77,11.91
31.188000,-86.5000,15,124.48,-4.77,11.91
31.198000,-86.6250,15,124.48,-4.77,11.91
31.208000,-86.7500,15,124.48,-4.77,11.91
31.218000,-85.6250,15,124.48,-4.77,11.91
31.228000,-85.3750,15,124.48,-4.77,11.91
31.238000,-87.5000,15,124.48,-4.77,11.91
31.248000,-85.3750,15,124.48,-4.77,11.91
31.258000,-86.7500,15,124.48,-4.77,11.91
31.268000,-85.0000,15,124.48,-4.77,11.91
31.278000,-86.1250,15,124.48,-4.77,11.91
31.288000,-86.1250,15,124.48,-4.77,11.91
31.298000,-84.6250,15,124.48,-4.77,11.91
31.308000,-87.7500,15,124.48,-4.77,11.91
31.318000,-86.5000,15,124.48,-4.77,11.91
31.328000,-86.1250,15,124.48,-4.77,11.91
31.338000,-87.0000,15,124.48,-4.77,11.91
31.348000,-85.7500,15,124.48,-4.77,11.91
31.358000,-87.3750,15,124.48,-4.77,11.91
31.368000,-87.1250,15,124.48,-4.77,11.91
31.378000,-86.7500,15,124.48,-4.77,11.91
31.388000,-85.1250,15,124.48,-4.77,11.91
31.398000,-87.1250,15,124.48,-4.77,11.91
31.408000,-86.3750,15,124.48,-4.77,11.91
31.418000,-84.7500,15,124.48,-4.77,11.91
31.428000,-88.0000,15,124.48,-4.77,11.91
31.438000,-85.6250,15,124.48,-4.77,11.91
31.448000,-85.8750,15,124.48,-4.77,11.91
31.458000,-87.1250,15,124.48,-4.77,11.91
31.468000,-86.7500,15,124.48,-4.77,11.91
31.478000,-87.1250,15,124.48,-4.77,11.91
31.488000,-86.1250,15,124.48,-4.77,11.91
31.498000,-86.6250,15,124.48,-4.77,11.91
31.508000,-86.6250,15,124.48,-4.77,11.91
31.518000,-87.6250,15,124.48,-4.77,11.91
31.528000,-85.3750,15,124.48,-4.77,11.91
31.538000,-88.0000,15,124.48,-4.77,11.91
31.548000,-86.0000,15,124.48,-4.77,11.91
31.558000,-85.7500,15,124.48,-4.77,11.91
31.568000,-85.1250,15,124.48,-4.77,11.91
31.578000,-86.3750,15,124.48,-4.77,11.91
31.588000,-87.2500,15,124.48,-4.77,11.91
31.598000,-85.7500,15,124.48,-4.77,11.91
31.608000,-87.0000,15,124.48,-4.77,11.91
31.618000,-87.5000,15,124.48,-4.77,11.91
31.628000,-88.6250,15,124.48,-4.77,11.91
31.638000,-84.2500,15,124.48,-4.77,11.91
31.648000,-85.2500,15,124.48,-4.77,11.91
31.658000,-84.6250,15,124.48,-4.77,11.91
31.668000,-90.7500,15,124.48,-4.77,11.91
31.678000,-86.2500,15,124.48,-4.77,11.91
31.688000,-86.2500,15,124.48,-4.77,11.91
31.698000,-83.3750,15,124.48,-4.77,11.91
31.708000,-86.7500,15,124.48,-4.77,11.91
31.718000,-85.2500,15,124.48,-4.77,11.91
31.728000,-85.5000,15,124.48,-4.77,11.91
31.738000,-87.7500,15,124.48,-4.77,11.91
31.748000,-85.1250,15,124.48,-4.77,11.91
31.758000,-86.5000,15,124.48,-4.77,11.91
31.768000,-86.0000,15,124.48,-4.77,11.91
31.778000,-84.5000,15,124.48,-4.77,11.91
31.788000,-86.6250,15,124.48,-4.77,11.91
31.798000,-87.2500,15,124.48,-4.77,11.91
31.808000,-85.0000,15,124.48,-4.77,11.91
31.818000,-87.5000,15,124.48,-4.77,11.91
31.828000,-86.2500,15,124.48,-4.77,11.91
31.838000,-86.8750,15,124.48,-4.77,11.91
31.848000,-86.0000,15,124.48,-4.77,11.91
31.858000,-85.6250,15,124.48,-4.77,11.91
31.868000,-87.7500,15,124.48,-4.77,11.91
31.878000,-89.1250,15,124.48,-4.77,11.91
31.888000,-84.5000,15,124.48,-4.77,11.91
31.898000,-83.3750,15,124.48,-4.77,11.91
31.908000,-85.1250,15,124.48,-4.77,11.91
31.918000,-85.5000,15,124.48,-4.77,11.91
31.928000,-85.3750,15,124.48,-4.77,11.91
31.938000,-87.5000,15,124.48,-4.77,11.91
31.948000,-87.7500,15,124.48,-4.77,11.91
31.958000,-86.1250,15,124.48,-4.77,11.91
31.968000,-84.2500,15,124.48,-4.77,11.91
31.978000,-88.3750,15,124.48,-4.77,11.91
31.988000,-86.8750,15,124.48,-4.77,11.91
31.998000,-84.6250,15,124.48,-4.77,11.91
32.008000,-86.7500,15,124.48,-4.77,11.91
32.018000,-87.8750,15,124.48,-4.77,11.91
32.028000,-87.8750,15,124.48,-4.77,11.91
32.038000,-86.1250,15,124.48,-4.77,11.91
32.048000,-86.5000,15,124.48,-4.77,11.91
32.058000,-85.5000,15,124.48,-4.77,11.91
32.068000,-88.6250,15,124.48,-4.77,11.91
32.078000,-85.5000,15,124.48,-4.77,11.91
32.088000,-86.5000,15,124.48,-4.77,11.91
32.098000,-86.7500,15,124.48,-4.77,11.91
32.108000,-87.5000,15,124.48,-4.77,11.91
32.118000,-88.3750,15,124.48,-4.77,11.91
32.128000,-85.1250,15,124.48,-4.77,11.91
32.138000,-84.3750,15,124.48,-4.77,11.91
32.148000,-85.6250,15,124.48,-4.77,11.91
32.158000,-87.1250,15,124.48,-4.77,11.91
32.168000,-90.1250,15,124.48,-4.77,11.91
32.178000,-86.7500,15,124.48,-4.77,11.91
32.188000,-88.3750,15,124.48,-4.77,11.91
32.198000,-87.0000,15,124.48,-4.77,11.91
32.208000,-85.3750,15,124.48,-4.77,11.91
32.218000,-87.6250,15,124.48,-4.77,11.91
32.228000,-87.2500,15,124.48,-4.77,11.91
32.238000,-85.0000,15,124.48,-4.77,11.91
32.248000,-87.1250,15,124.48,-4.77,11.91
32.258000,-88.2500,15,124.48,-4.77,11.91
32.268000,-87.8750,15,124.48,-4.77,11.91
32.278000,-84.6250,15,124.48,-4.77,11.91
32.288000,-84.3750,15,124.48,-4.77,11.91
32.298000,-84.1250,15,124.48,-4.77,11.91
32.308000,-88.1250,15,124.48,-4.77,11.91
32.318000,-87.7500,15,124.48,-4.77,11.91
32.328000,-88.3750,15,124.48,-4.77,11.91
32.338000,-88.2500,15,124.48,-4.77,11.91
32.348000,-88.2500,15,124.48,-4.77,11.91
32.358000,-85.8750,15,124.48,-4.77,11.91
32.368000,-88.7500,15,124.48,-4.77,11.91
32.378000,-86.1250,15,124.48,-4.77,11.91
32.388000,-85.0000,15,124.48,-4.77,11.91
32.398000,-85.1250,15,124.48,-4.77,11.91
32.408000,-87.0000,15,124.48,-4.77,11.91
32.418000,-86.7500,15,124.48,-4.77,11.91
32.428000,-86.5000,15,124.48,-4.77,11.91
32.438000,-87.0000,15,124.48,-4.77,11.91
32.448000,-87.0000,15,124.48,-4.77,11.91
32.458000,-85.7500,15,124.48,-4.77,11.91
32.468000,-89.7500,15,124.48,-4.77,11.91
32.478000,-87.6250,15,124.48,-4.77,11.91
32.488000,-85.1250,15,124.48,-4.77,11.91
32.498000,-87.8750,15,124.48,-4.77,11.91
32.508000,-85.2500,15,124.48,-4.77,11.91
32.518000,-84.6250,15,124.48,-4.77,11.91
32.528000,-86.5000,15,124.48,-4.77,11.91
32.538000,-86.6250,15,124.48,-4.77,11.91
32.548000,-85.5000,15,124.48,-4.77,11.91
32.558000,-87.1250,15,124.48,-4.77,11.91
32.568000,-88.3750,15,124.48,-4.77,11.91
32.578000,-87.3750,15,124.48,-4.77,11.91
32.588000,-85.7500,15,124.48,-4.77,11.91
32.598000,-87.2500,15,124.48,-4.77,11.91
32.608000,-87.7500,15,124.48,-4.77,11.91
32.618000,-88.0000,15,124.48,-4.77,11.91
32.628000,-86.1250,15,124.48,-4.77,11.91
32.638000,-86.1250,15,124.48,-4.77,11.91
32.648000,-87.0000,15,124.48,-4.77,11.91
32.658000,-84.5000,15,124.48,-4.77,11.91
32.668000,-87.1250,15,124.48,-4.77,11.91
32.678000,-85.6250,15,124.48,-4.77,11.91
32.688000,-87.2500,15,124.48,-4.77,11.91
32.698000,-85.6250,15,124.48,-4.77,11.91
32.708000,-87.7500,15,124.48,-4.77,11.91
32.718000,-88.0000,15,124.48,-4.77,11.91
32.728000,-84.1250,15,124.48,-4.77,11.91
32.738000,-86.2500,15,124.48,-4.77,11.91
32.748000,-90.1250,15,124.48,-4.77,11.91
32.758000,-87.2500,15,124.48,-4.77,11.91
32.768000,-85.3750,15,124.48,-4.77,11.91
32.778000,-84.7500,15,124.48,-4.77,11.91
32.788000,-87.5000,15,124.48,-4.77,11.91
32.798000,-87.6250,15,124.48,-4.77,11.91
32.808000,-88.5000,15,124.48,-4.77,11.91
32.818000,-86.2500,15,124.48,-4.77,11.91
32.828000,-87.5000,15,124.48,-4.77,11.91
32.838000,-86.3750,15,124.48,-4.77,11.91
32.848000,-84.7500,15,124.48,-4.77,11.91
32.858000,-84.7500,15,124.48,-4.77,11.91
32.868000,-86.5000,15,124.48,-4.77,11.91
32.878000,-88.2500,15,124.48,-4.77,11.91
32.888000,-84.6250,15,124.48,-4.77,11.91
32.898000,-85.6250,15,124.48,-4.77,11.91
32.908000,-88.1250,15,124.48,-4.77,11.91
32.918000,-87.2500,15,124.48,-4.77,11.91
32.928000,-87.7500,15,124.48,-4.77,11.91
32.938000,-86.7500,15,124.48,-4.77,11.91
32.948000,-88.1250,15,124.48,-4.77,11.91
32.958000,-86.8750,15,124.48,-4.77,11.91
32.968000,-86.3750,15,124.48,-4.77,11.91
32.978000,-86.2500,15,124.48,-4.77,11.91
32.988000,-87.7500,15,124.48,-4.77,11.91
32.998000,-86.7500,15,124.48,-4.77,11.91
33.008000,-86.3750,15,124.48,-4.77,11.91
33.018000,-86.8750,15,124.48,-4.77,11.91
33.028000,-87.6250,15,124.48,-4.77,11.91
33.038000,-87.0000,15,124.48,-4.77,11.91
33.048000,-86.2500,15,124.48,-4.77,11.91
33.058000,-87.3750,15,124.48,-4.77,11.91
33.068000,-87.1250,15,124.48,-4.77,11.91
33.078000,-86.2500,15,124.48,-4.77,11.91
33.088000,-87.5000,15,124.48,-4.77,11.91
33.098000,-86.8750,15,124.48,-4.77,11.91
33.108000,-87.1250,15,124.48,-4.77,11.91
33.118000,-86.8750,15,124.48,-4.77,11.91
33.128000,-86.2500,15,124.48,-4.77,11.91
33.138000,-87.8750,15,124.48,-4.77,11.91
33.148000,-86.8750,15,124.48,-4.77,11.91
33.158000,-87.6250,15,124.48,-4.77,11.91
33.168000,-87.6250,17,63.42,-2.61,28.40
33.178000,-86.8750,17,63.42,-2.61,28.40
33.188000,-86.6250,17,63.42,-2.61,28.40
33.198000,-88.1250,17,63.42,-2.61,28.40
33.208000,-86.6250,17,63.42,-2.61,28.40
33.218000,-86.0000,17,63.42,-2.61,28.40
33.228000,-85.2500,17,63.42,-2.61,28.40
33.238000,-87.2500,17,63.42,-2.61,28.40
33.248000,-86.8750,17,63.42,-2.61,28.40
33.258000,-86.6250,17,63.42,-2.61,28.40
33.268000,-87.7500,17,63.42,-2.61,28.40
33.278000,-85.3750,17,63.42,-2.61,28.40
33.288000,-86.2500,17,63.42,-2.61,28.40
33.298000,-85.1250,17,63.42,-2.61,28.40
33.308000,-89.5000,17,63.42,-2.61,28.40
33.318000,-87.5000,17,63.42,-2.61,28.40
33.328000,-85.8750,17,63.42,-2.61,28.40
33.338000,-87.6250,17,63.42,-2.61,28.40
33.348000,-84.0000,17,63.42,-2.61,28.40
33.358000,-88.5000,17,63.42,-2.61,28.40
33.368000,-87.6250,17,63.42,-2.61,28.40
33.378000,-86.1250,17,63.42,-2.61,28.40
33.388000,-84.8750,17,63.42,-2.61,28.40
33.398000,-87.5000,17,63.42,-2.61,28.40
33.408000,-85.5000,17,63.42,-2.61,28.40
33.418000,-85.5000,17,63.42,-2.61,28.40
33.428000,-85.0000,17,63.42,-2.61,28.40
33.438000,-87.2500,17,63.42,-2.61,28.40
33.448000,-87.3750,17,63.42,-2.61,28.40
33.458000,-89.8750,17,63.42,-2.61,28.40
33.468000,-87.8750,17,63.42,-2.61,28.40
33.478000,-83.7500,17,63.42,-2.61,28.40
33.488000,-85.5000,17,63.42,-2.61,28.40
33.498000,-89.5000,17,63.42,-2.61,28.40
33.508000,-87.2500,17,63.42,-2.61,28.40
33.518000,-87.0000,17,63.42,-2.61,28.40
33.528000,-82.8750,17,63.42,-2.61,28.40
33.538000,-87.1250,17,63.42,-2.61,28.40
33.548000,-90.2500,17,63.42,-2.61,28.40
33.558000,-85.1250,17,63.42,-2.61,28.40
33.568000,-84.5000,17,63.42,-2.61,28.40
33.578000,-88.3750,17,63.42,-2.61,28.40
33.588000,-88.3750,17,63.42,-2.61,28.40
33.598000,-85.5000,17,63.42,-2.61,28.40
33.608000,-83.8750,17,63.42,-2.61,28.40
33.618000,-86.3750,17,63.42,-2.61,28.40
33.628000,-88.0000,17,63.42,-2.61,28.40
33.638000,-86.8750,17,63.42,-2.61,28.40
33.648000,-84.5000,17,63.42,-2.61,28.40
33.658000,-84.6250,17,63.42,-2.61,28.40
33.668000,-84.1250,17,63.42,-2.61,28.40
33.678000,-85.8750,17,63.42,-2.61,28.40
33.688000,-85.1250,17,63.42,-2.61,28.40
33.698000,-86.3750,17,63.42,-2.61,28.40
33.708000,-85.8750,17,63.42,-2.61,28.40
33.718000,-87.2500,17,63.42,-2.61,28.40
33.728000,-86.8750,17,63.42,-2.61,28.40
33.738000,-85.7500,17,63.42,-2.61,28.40
33.748000,-88.2500,17,63.42,-2.61,28.40
33.758000,-86.1250,17,63.42,-2.61,28.40
33.768000,-88.5000,17,63.42,-2.61,28.40
33.778000,-86.3750,17,63.42,-2.61,28.40
33.788000,-86.7500,17,63.42,-2.61,28.40
33.798000,-85.6250,17,63.42,-2.61,28.40
33.808000,-85.8750,17,63.42,-2.61,28.40
33.818000,-85.2500,17,63.42,-2.61,28.40
33.828000,-87.5000,17,63.42,-2.61,28.40
33.838000,-87.8750,17,63.42,-2.61,28.40
33.848000,-87.0000,17,63.42,-2.61,28.40
33.858000,-86.6250,17,63.42,-2.61,28.40
33.868000,-86.6250,17,63.42,-2.61,28.40
