timestamp_s,raw_mV,filtered_mV,is_r_peak,loop,hr_bpm,snr_db
0.000000,-0.0096,-0.0558,0,2,72.46,7.41
0.002000,0.0535,-0.0549,0,2,72.46,7.41
0.004000,-0.0019,-0.0538,0,2,72.46,7.41
0.006000,-0.0244,-0.0523,0,2,72.46,7.41
0.008000,-0.0444,-0.0504,0,2,72.46,7.41
0.010000,-0.0127,-0.0483,0,2,72.46,7.41
0.012000,0.0225,-0.0463,0,2,72.46,7.41
0.014000,0.0399,-0.0450,0,2,72.46,7.41
0.016000,-0.0313,-0.0448,0,2,72.46,7.41
0.018000,0.0273,-0.0456,0,2,72.46,7.41
0.020000,0.0392,-0.0473,0,2,72.46,7.41
0.022000,-0.0183,-0.0493,0,2,72.46,7.41
0.024000,-0.0408,-0.0512,0,2,72.46,7.41
0.026000,-0.0072,-0.0524,0,2,72.46,7.41
0.028000,0.0129,-0.0526,0,2,72.46,7.41
0.030000,0.0150,-0.0517,0,2,72.46,7.41
0.032000,0.0006,-0.0500,0,2,72.46,7.41
0.034000,-0.0294,-0.0479,0,2,72.46,7.41
0.036000,0.0067,-0.0460,0,2,72.46,7.41
0.038000,0.0197,-0.0447,0,2,72.46,7.41
0.040000,0.0350,-0.0441,0,2,72.46,7.41
0.042000,0.0058,-0.0441,0,2,72.46,7.41
0.044000,0.0395,-0.0442,0,2,72.46,7.41
0.046000,-0.0077,-0.0435,0,2,72.46,7.41
0.048000,-0.0048,-0.0414,0,2,72.46,7.41
0.050000,-0.0035,-0.0373,0,2,72.46,7.41
0.052000,0.0114,-0.0310,0,2,72.46,7.41
0.054000,0.0392,-0.0231,0,2,72.46,7.41
0.056000,0.0617,-0.0141,0,2,72.46,7.41
0.058000,0.0420,-0.0051,0,2,72.46,7.41
0.060000,0.0806,0.0032,0,2,72.46,7.41
0.062000,0.0669,0.0101,0,2,72.46,7.41
0.064000,0.0611,0.0154,0,2,72.46,7.41
0.066000,0.0621,0.0195,0,2,72.46,7.41
0.068000,0.1034,0.0228,0,2,72.46,7.41
0.070000,0.1043,0.0261,0,2,72.46,7.41
0.072000,0.0630,0.0303,0,2,72.46,7.41
0.074000,0.1084,0.0363,0,2,72.46,7.41
0.076000,0.0876,0.0442,0,2,72.46,7.41
0.078000,0.0944,0.0543,0,2,72.46,7.41
0.080000,0.1094,0.0658,0,2,72.46,7.41
0.082000,0.1441,0.0779,0,2,72.46,7.41
0.084000,0.1836,0.0893,0,2,72.46,7.41
0.086000,0.1428,0.0990,0,2,72.46,7.41
0.088000,0.1799,0.1061,0,2,72.46,7.41
0.090000,0.1703,0.1103,0,2,72.46,7.41
0.092000,0.2030,0.1117,0,2,72.46,7.41
0.094000,0.1685,0.1110,0,2,72.46,7.41
0.096000,0.1438,0.1089,0,2,72.46,7.41
0.098000,0.1462,0.1065,0,2,72.46,7.41
0.100000,0.2003,0.1044,0,2,72.46,7.41
0.102000,0.1253,0.1030,0,2,72.46,7.41
0.104000,0.1669,0.1022,0,2,72.46,7.41
0.106000,0.1767,0.1018,0,2,72.46,7.41
0.108000,0.2019,0.1012,0,2,72.46,7.41
0.110000,0.1609,0.0999,0,2,72.46,7.41
0.112000,0.1521,0.0973,0,2,72.46,7.41
0.114000,0.1449,0.0931,0,2,72.46,7.41
0.116000,0.1391,0.0871,0,2,72.46,7.41
0.118000,0.1665,0.0792,0,2,72.46,7.41
0.120000,0.1359,0.0695,0,2,72.46,7.41
0.122000,0.1078,0.0583,0,2,72.46,7.41
0.124000,0.1113,0.0459,0,2,72.46,7.41
0.126000,0.1098,0.0329,0,2,72.46,7.41
0.128000,0.1141,0.0200,0,2,72.46,7.41
0.130000,0.0481,0.0078,0,2,72.46,7.41
0.132000,0.0788,-0.0032,0,2,72.46,7.41
0.134000,0.0417,-0.0123,0,2,72.46,7.41
0.136000,0.0341,-0.0195,0,2,72.46,7.41
0.138000,0.0461,-0.0246,0,2,72.46,7.41
0.140000,0.0474,-0.0281,0,2,72.46,7.41
0.142000,0.0515,-0.0302,0,2,72.46,7.41
0.144000,0.0103,-0.0315,0,2,72.46,7.41
0.146000,0.0662,-0.0324,0,2,72.46,7.41
0.148000,0.0449,-0.0333,0,2,72.46,7.41
0.150000,0.0230,-0.0346,0,2,72.46,7.41
0.152000,0.0468,-0.0364,0,2,72.46,7.41
0.154000,0.0384,-0.0391,0,2,72.46,7.41
0.156000,-0.0259,-0.0429,0,2,72.46,7.41
0.158000,0.0159,-0.0479,0,2,72.46,7.41
0.160000,0.0450,-0.0542,0,2,72.46,7.41
0.162000,0.0009,-0.0613,0,2,72.46,7.41
0.164000,0.0364,-0.0680,0,2,72.46,7.41
0.166000,-0.0239,-0.0727,0,2,72.46,7.41
0.168000,0.0235,-0.0723,0,2,72.46,7.41
0.170000,0.0126,-0.0633,0,2,72.46,7.41
0.172000,0.0236,-0.0416,0,2,72.46,7.41
0.174000,0.0661,-0.0029,0,2,72.46,7.41
0.176000,0.1688,0.0567,0,2,72.46,7.41
0.178000,0.2070,0.1400,0,2,72.46,7.41
0.180000,0.3001,0.2485,0,2,72.46,7.41
0.182000,0.4375,0.3813,0,2,72.46,7.41
0.184000,0.6140,0.5351,0,2,72.46,7.41
0.186000,0.7540,0.7041,0,2,72.46,7.41
0.188000,0.9457,0.8800,0,2,72.46,7.41
0.190000,1.1352,1.0529,0,2,72.46,7.41
0.192000,1.3153,1.2116,0,2,72.46,7.41
0.194000,1.4350,1.3453,0,2,72.46,7.41
0.196000,1.4926,1.4441,0,2,72.46,7.41
0.198000,1.5819,1.5002,1,2,72.46,7.41
0.200000,1.5941,1.5089,1,2,72.46,7.41
0.202000,1.5536,1.4685,1,2,72.46,7.41
0.204000,1.4783,1.3814,0,2,72.46,7.41
0.206000,1.3356,1.2534,0,2,72.46,7.41
0.208000,1.1740,1.0932,0,2,72.46,7.41
0.210000,1.0037,0.9118,0,2,72.46,7.41
0.212000,0.8096,0.7215,0,2,72.46,7.41
0.214000,0.5913,0.5344,0,2,72.46,7.41
0.216000,0.4012,0.3612,0,2,72.46,7.41
0.218000,0.2991,0.2108,0,2,72.46,7.41
0.220000,0.1548,0.0887,0,2,72.46,7.41
0.222000,0.0790,-0.0026,0,2,72.46,7.41
0.224000,0.0054,-0.0637,0,2,72.46,7.41
0.226000,-0.0486,-0.0981,0,2,72.46,7.41
0.228000,-0.0078,-0.1110,0,2,72.46,7.41
0.230000,-0.0160,-0.1088,0,2,72.46,7.41
0.232000,0.0202,-0.0975,0,2,72.46,7.41
0.234000,0.0360,-0.0826,0,2,72.46,7.41
0.236000,0.0148,-0.0678,0,2,72.46,7.41
0.238000,0.0093,-0.0552,0,2,72.46,7.41
0.240000,0.0220,-0.0456,0,2,72.46,7.41
0.242000,0.0319,-0.0382,0,2,72.46,7.41
0.244000,0.0498,-0.0320,0,2,72.46,7.41
0.246000,0.0602,-0.0258,0,2,72.46,7.41
0.248000,0.0249,-0.0186,0,2,72.46,7.41
0.250000,0.0817,-0.0100,0,2,72.46,7.41
0.252000,0.0983,0.0001,0,2,72.46,7.41
0.254000,0.1353,0.0110,0,2,72.46,7.41
0.256000,0.0874,0.0222,0,2,72.46,7.41
0.258000,0.1046,0.0330,0,2,72.46,7.41
0.260000,0.1325,0.0429,0,2,72.46,7.41
0.262000,0.1279,0.0517,0,2,72.46,7.41
0.264000,0.1676,0.0593,0,2,72.46,7.41
0.266000,0.1463,0.0662,0,2,72.46,7.41
0.268000,0.1628,0.0729,0,2,72.46,7.41
0.270000,0.1696,0.0797,0,2,72.46,7.41
0.272000,0.1744,0.0872,0,2,72.46,7.41
0.274000,0.1469,0.0955,0,2,72.46,7.41
0.276000,0.1803,0.1046,0,2,72.46,7.41
0.278000,0.2378,0.1143,0,2,72.46,7.41
0.280000,0.2133,0.1242,0,2,72.46,7.41
0.282000,0.2040,0.1340,0,2,72.46,7.41
0.284000,0.2425,0.1433,0,2,72.46,7.41
0.286000,0.2547,0.1523,0,2,72.46,7.41
0.288000,0.2411,0.1611,0,2,72.46,7.41
0.290000,0.2832,0.1699,0,2,72.46,7.41
0.292000,0.2466,0.1789,0,2,72.46,7.41
0.294000,0.2478,0.1882,0,2,72.46,7.41
0.296000,0.2846,0.1976,0,2,72.46,7.41
0.298000,0.3091,0.2069,0,2,72.46,7.41
0.300000,0.3196,0.2156,0,2,72.46,7.41
0.302000,0.3049,0.2232,0,2,72.46,7.41
0.304000,0.3162,0.2297,0,2,72.46,7.41
0.306000,0.3375,0.2350,0,2,72.46,7.41
0.308000,0.3510,0.2394,0,2,72.46,7.41
0.310000,0.3221,0.2431,0,2,72.46,7.41
0.312000,0.3352,0.2468,0,2,72.46,7.41
0.314000,0.3182,0.2506,0,2,72.46,7.41
0.316000,0.3489,0.2545,0,2,72.46,7.41
0.318000,0.3509,0.2586,0,2,72.46,7.41
0.320000,0.3720,0.2621,0,2,72.46,7.41
0.322000,0.3526,0.2647,0,2,72.46,7.41
0.324000,0.3367,0.2656,0,2,72.46,7.41
0.326000,0.3534,0.2643,0,2,72.46,7.41
0.328000,0.3441,0.2603,0,2,72.46,7.41
0.330000,0.3913,0.2538,0,2,72.46,7.41
0.332000,0.3783,0.2449,0,2,72.46,7.41
0.334000,0.2875,0.2343,0,2,72.46,7.41
0.336000,0.3021,0.2230,0,2,72.46,7.41
0.338000,0.2983,0.2120,0,2,72.46,7.41
0.340000,0.2903,0.2019,0,2,72.46,7.41
0.342000,0.3002,0.1933,0,2,72.46,7.41
0.344000,0.2791,0.1863,0,2,72.46,7.41
0.346000,0.2694,0.1803,0,2,72.46,7.41
0.348000,0.2635,0.1749,0,2,72.46,7.41
0.350000,0.2457,0.1690,0,2,72.46,7.41
0.352000,0.2854,0.1618,0,2,72.46,7.41
0.354000,0.2747,0.1527,0,2,72.46,7.41
0.356000,0.2375,0.1415,0,2,72.46,7.41
0.358000,0.2203,0.1284,0,2,72.46,7.41
0.360000,0.1757,0.1139,0,2,72.46,7.41
0.362000,0.2155,0.0989,0,2,72.46,7.41
0.364000,0.1761,0.0843,0,2,72.46,7.41
0.366000,0.1377,0.0708,0,2,72.46,7.41
0.368000,0.1736,0.0589,0,2,72.46,7.41
0.370000,0.1781,0.0490,0,2,72.46,7.41
0.372000,0.1291,0.0409,0,2,72.46,7.41
0.374000,0.1282,0.0343,0,2,72.46,7.41
0.376000,0.0956,0.0286,0,2,72.46,7.41
0.378000,0.1287,0.0234,0,2,72.46,7.41
0.380000,0.1101,0.0178,0,2,72.46,7.41
0.382000,0.1375,0.0113,0,2,72.46,7.41
0.384000,0.0935,0.0037,0,2,72.46,7.41
0.386000,0.0925,-0.0052,0,2,72.46,7.41
0.388000,0.1023,-0.0149,0,2,72.46,7.41
0.390000,0.0657,-0.0248,0,2,72.46,7.41
0.392000,0.0602,-0.0344,0,2,72.46,7.41
0.394000,0.0423,-0.0430,0,2,72.46,7.41
0.396000,0.0746,-0.0502,0,2,72.46,7.41
0.398000,0.0278,-0.0557,0,2,72.46,7.41
0.400000,0.0198,-0.0597,0,2,72.46,7.41
0.402000,0.0421,-0.0625,0,2,72.46,7.41
0.404000,0.0227,-0.0648,0,2,72.46,7.41
0.406000,0.0449,-0.0671,0,2,72.46,7.41
0.408000,0.0694,-0.0700,0,2,72.46,7.41
0.410000,0.0180,-0.0735,0,2,72.46,7.41
0.412000,0.0363,-0.0778,0,2,72.46,7.41
0.414000,-0.0110,-0.0825,0,2,72.46,7.41
0.416000,0.0093,-0.0871,0,2,72.46,7.41
0.418000,0.0355,-0.0912,0,2,72.46,7.41
0.420000,-0.0304,-0.0945,0,2,72.46,7.41
0.422000,-0.0153,-0.0969,0,2,72.46,7.41
0.424000,0.0514,-0.0984,0,2,72.46,7.41
0.426000,-0.0043,-0.0992,0,2,72.46,7.41
0.428000,-0.0121,-0.0996,0,2,72.46,7.41
0.430000,0.0081,-0.0997,0,2,72.46,7.41
0.432000,0.0468,-0.0997,0,2,72.46,7.41
0.434000,-0.0314,-0.0996,0,2,72.46,7.41
0.436000,-0.0044,-0.0994,0,2,72.46,7.41
0.438000,-0.0010,-0.0991,0,2,72.46,7.41
0.440000,0.0065,-0.0986,0,2,72.46,7.41
0.442000,0.0018,-0.0980,0,2,72.46,7.41
0.444000,0.0304,-0.0973,0,2,72.46,7.41
0.446000,-0.0099,-0.0968,0,2,72.46,7.41
0.448000,-0.0057,-0.0966,0,2,72.46,7.41
0.450000,0.0150,-0.0968,0,2,72.46,7.41
0.452000,0.0241,-0.0976,0,2,72.46,7.41
0.454000,-0.0101,-0.0990,0,2,72.46,7.41
0.456000,0.0143,-0.1010,0,2,72.46,7.41
0.458000,0.0043,-0.1034,0,2,72.46,7.41
0.460000,-0.0072,-0.1059,0,2,72.46,7.41
0.462000,-0.0035,-0.1082,0,2,72.46,7.41
0.464000,-0.0251,-0.1102,0,2,72.46,7.41
0.466000,-0.0050,-0.1118,0,2,72.46,7.41
0.468000,-0.0090,-0.1130,0,2,72.46,7.41
0.470000,0.0037,-0.1139,0,2,72.46,7.41
0.472000,0.0012,-0.1147,0,2,72.46,7.41
0.474000,-0.0123,-0.1154,0,2,72.46,7.41
0.476000,-0.0091,-0.1161,0,2,72.46,7.41
0.478000,-0.0196,-0.1165,0,2,72.46,7.41
0.480000,-0.0029,-0.1163,0,2,72.46,7.41
0.482000,-0.0001,-0.1155,0,2,72.46,7.41
0.484000,-0.0394,-0.1138,0,2,72.46,7.41
0.486000,-0.0095,-0.1113,0,2,72.46,7.41
0.488000,0.0117,-0.1085,0,2,72.46,7.41
0.490000,0.0207,-0.1056,0,2,72.46,7.41
0.492000,-0.0121,-0.1034,0,2,72.46,7.41
0.494000,-0.0135,-0.1023,0,2,72.46,7.41
0.496000,0.0266,-0.1027,0,2,72.46,7.41
0.498000,0.0138,-0.1046,0,2,72.46,7.41
0.500000,-0.0084,-0.1078,0,2,72.46,7.41
0.502000,-0.0219,-0.1118,0,2,72.46,7.41
0.504000,0.0110,-0.1159,0,2,72.46,7.41
0.506000,-0.0036,-0.1192,0,2,72.46,7.41
0.508000,-0.0227,-0.1211,0,2,72.46,7.41
0.510000,-0.0346,-0.1210,0,2,72.46,7.41
0.512000,0.0076,-0.1189,0,2,72.46,7.41
0.514000,-0.0089,-0.1149,0,2,72.46,7.41
0.516000,-0.0311,-0.1096,0,2,72.46,7.41
0.518000,0.0306,-0.1039,0,2,72.46,7.41
0.520000,0.0049,-0.0986,0,2,72.46,7.41
0.522000,0.0155,-0.0946,0,2,72.46,7.41
0.524000,0.0462,-0.0924,0,2,72.46,7.41
0.526000,-0.0092,-0.0924,0,2,72.46,7.41
0.528000,-0.0035,-0.0944,0,2,72.46,7.41
0.530000,0.0290,-0.0981,0,2,72.46,7.41
0.532000,0.0247,-0.1030,0,2,72.46,7.41
0.534000,-0.0070,-0.1083,0,2,72.46,7.41
0.536000,-0.0218,-0.1134,0,2,72.46,7.41
0.538000,-0.0053,-0.1174,0,2,72.46,7.41
0.540000,-0.0007,-0.1197,0,2,72.46,7.41
0.542000,-0.0211,-0.1201,0,2,72.46,7.41
0.544000,-0.0024,-0.1185,0,2,72.46,7.41
0.546000,0.0123,-0.1151,0,2,72.46,7.41
0.548000,-0.0384,-0.1106,0,2,72.46,7.41
0.550000,0.0004,-0.1060,0,2,72.46,7.41
0.552000,0.0028,-0.1020,0,2,72.46,7.41
0.554000,0.0555,-0.0998,0,2,72.46,7.41
0.556000,0.0217,-0.0999,0,2,72.46,7.41
0.558000,-0.0201,-0.1026,0,2,72.46,7.41
0.560000,-0.0091,-0.1075,0,2,72.46,7.41
0.562000,-0.0136,-0.1141,0,2,72.46,7.41
0.564000,0.0248,-0.1211,0,2,72.46,7.41
0.566000,0.0078,-0.1276,0,2,72.46,7.41
0.568000,-0.0469,-0.1323,0,2,72.46,7.41
0.570000,-0.0500,-0.1344,0,2,72.46,7.41
0.572000,-0.0109,-0.1333,0,2,72.46,7.41
0.574000,-0.0207,-0.1292,0,2,72.46,7.41
0.576000,-0.0268,-0.1227,0,2,72.46,7.41
0.578000,0.0015,-0.1150,0,2,72.46,7.41
0.580000,0.0187,-0.1072,0,2,72.46,7.41
0.582000,0.0277,-0.1008,0,2,72.46,7.41
0.584000,-0.0265,-0.0967,0,2,72.46,7.41
0.586000,0.0203,-0.0956,0,2,72.46,7.41
0.588000,0.0470,-0.0977,0,2,72.46,7.41
0.590000,0.0204,-0.1025,0,2,72.46,7.41
0.592000,0.0096,-0.1089,0,2,72.46,7.41
0.594000,0.0013,-0.1159,0,2,72.46,7.41
0.596000,-0.0459,-0.1221,0,2,72.46,7.41
0.598000,-0.0339,-0.1264,0,2,72.46,7.41
0.600000,-0.0194,-0.1283,0,2,72.46,7.41
0.602000,-0.0076,-0.1278,0,2,72.46,7.41
0.604000,-0.0316,-0.1253,0,2,72.46,7.41
0.606000,0.0147,-0.1218,0,2,72.46,7.41
0.608000,0.0260,-0.1179,0,2,72.46,7.41
0.610000,-0.0099,-0.1145,0,2,72.46,7.41
0.612000,0.0133,-0.1119,0,2,72.46,7.41
0.614000,-0.0075,-0.1102,0,2,72.46,7.41
0.616000,-0.0037,-0.1093,0,2,72.46,7.41
0.618000,-0.0130,-0.1089,0,2,72.46,7.41
0.620000,-0.0217,-0.1088,0,2,72.46,7.41
0.622000,0.0190,-0.1089,0,2,72.46,7.41
0.624000,0.0268,-0.1092,0,2,72.46,7.41
0.626000,0.0141,-0.1098,0,2,72.46,7.41
0.628000,0.0013,-0.1106,0,2,72.46,7.41
0.630000,0.0024,-0.1117,0,2,72.46,7.41
0.632000,-0.0211,-0.1128,0,2,72.46,7.41
0.634000,0.0059,-0.1138,0,2,72.46,7.41
0.636000,-0.0082,-0.1148,0,2,72.46,7.41
0.638000,-0.0135,-0.1155,0,2,72.46,7.41
0.640000,0.0348,-0.1159,0,2,72.46,7.41
0.642000,-0.0102,-0.1159,0,2,72.46,7.41
0.644000,-0.0032,-0.1154,0,2,72.46,7.41
0.646000,-0.0126,-0.1143,0,2,72.46,7.41
0.648000,0.0060,-0.1126,0,2,72.46,7.41
0.650000,-0.0031,-0.1105,0,2,72.46,7.41
0.652000,0.0305,-0.1084,0,2,72.46,7.41
0.654000,-0.0218,-0.1065,0,2,72.46,7.41
0.656000,-0.0007,-0.1053,0,2,72.46,7.41
0.658000,0.0160,-0.1052,0,2,72.46,7.41
0.660000,0.0363,-0.1064,0,2,72.46,7.41
0.662000,-0.0083,-0.1087,0,2,72.46,7.41
0.664000,0.0086,-0.1120,0,2,72.46,7.41
0.666000,0.0037,-0.1156,0,2,72.46,7.41
0.668000,-0.0042,-0.1189,0,2,72.46,7.41
0.670000,-0.0039,-0.1215,0,2,72.46,7.41
0.672000,-0.0395,-0.1230,0,2,72.46,7.41
0.674000,-0.0149,-0.1232,0,2,72.46,7.41
0.676000,-0.0042,-0.1225,0,2,72.46,7.41
0.678000,-0.0048,-0.1211,0,2,72.46,7.41
0.680000,0.0330,-0.1195,0,2,72.46,7.41
0.682000,-0.0089,-0.1181,0,2,72.46,7.41
0.684000,-0.0170,-0.1171,0,2,72.46,7.41
0.686000,-0.0187,-0.1163,0,2,72.46,7.41
0.688000,0.0293,-0.1159,0,2,72.46,7.41
0.690000,-0.0215,-0.1155,0,2,72.46,7.41
0.692000,0.0080,-0.1151,0,2,72.46,7.41
0.694000,0.0166,-0.1144,0,2,72.46,7.41
0.696000,-0.0126,-0.1135,0,2,72.46,7.41
0.698000,-0.0171,-0.1124,0,2,72.46,7.41
0.700000,0.0064,-0.1112,0,2,72.46,7.41
0.702000,-0.0004,-0.1102,0,2,72.46,7.41
0.704000,0.0379,-0.1097,0,2,72.46,7.41
0.706000,0.0102,-0.1098,0,2,72.46,7.41
0.708000,-0.0274,-0.1106,0,2,72.46,7.41
0.710000,0.0093,-0.1122,0,2,72.46,7.41
0.712000,0.0239,-0.1143,0,2,72.46,7.41
0.714000,-0.0061,-0.1165,0,2,72.46,7.41
0.716000,-0.0040,-0.1186,0,2,72.46,7.41
0.718000,-0.0187,-0.1202,0,2,72.46,7.41
0.720000,-0.0258,-0.1209,0,2,72.46,7.41
0.722000,0.0247,-0.1208,0,2,72.46,7.41
0.724000,0.0017,-0.1198,0,2,72.46,7.41
0.726000,-0.0365,-0.1181,0,2,72.46,7.41
0.728000,0.0326,-0.1161,0,2,72.46,7.41
0.730000,-0.0032,-0.1140,0,2,72.46,7.41
0.732000,0.0001,-0.1122,0,2,72.46,7.41
0.734000,-0.0205,-0.1110,0,2,72.46,7.41
0.736000,0.0362,-0.1104,0,2,72.46,7.41
0.738000,0.0064,-0.1106,0,2,72.46,7.41
0.740000,-0.0093,-0.1115,0,2,72.46,7.41
0.742000,0.0383,-0.1128,0,2,72.46,7.41
0.744000,-0.0393,-0.1143,0,2,72.46,7.41
0.746000,-0.0099,-0.1158,0,2,72.46,7.41
0.748000,0.0042,-0.1173,0,2,72.46,7.41
0.750000,-0.0040,-0.1187,0,2,72.46,7.41
0.752000,0.0325,-0.1201,0,2,72.46,7.41
0.754000,-0.0080,-0.1214,0,2,72.46,7.41
0.756000,-0.0226,-0.1224,0,2,72.46,7.41
0.758000,-0.0184,-0.1232,0,2,72.46,7.41
0.760000,-0.0087,-0.1235,0,2,72.46,7.41
0.762000,-0.0027,-0.1231,0,2,72.46,7.41
0.764000,-0.0032,-0.1221,0,2,72.46,7.41
0.766000,-0.0165,-0.1203,0,2,72.46,7.41
0.768000,0.0348,-0.1180,0,2,72.46,7.41
0.770000,-0.0042,-0.1150,0,2,72.46,7.41
0.772000,-0.0264,-0.1117,0,2,72.46,7.41
0.774000,0.0245,-0.1081,0,2,72.46,7.41
0.776000,-0.0046,-0.1047,0,2,72.46,7.41
0.778000,0.0161,-0.1018,0,2,72.46,7.41
0.780000,0.0319,-0.0997,0,2,72.46,7.41
0.782000,0.0205,-0.0989,0,2,72.46,7.41
0.784000,-0.0046,-0.0995,0,2,72.46,7.41
0.786000,0.0231,-0.1016,0,2,72.46,7.41
0.788000,0.0055,-0.1051,0,2,72.46,7.41
0.790000,0.0304,-0.1096,0,2,72.46,7.41
0.792000,-0.0014,-0.1146,0,2,72.46,7.41
0.794000,0.0055,-0.1193,0,2,72.46,7.41
0.796000,-0.0266,-0.1230,0,2,72.46,7.41
0.798000,-0.0167,-0.1252,0,2,72.46,7.41
0.800000,-0.0041,-0.1255,0,2,72.46,7.41
0.802000,-0.0194,-0.1240,0,2,72.46,7.41
0.804000,0.0125,-0.1210,0,2,72.46,7.41
0.806000,-0.0194,-0.1172,0,2,72.46,7.41
0.808000,0.0105,-0.1133,0,2,72.46,7.41
0.810000,0.0208,-0.1101,0,2,72.46,7.41
0.812000,0.0096,-0.1083,0,2,72.46,7.41
0.814000,-0.0155,-0.1082,0,2,72.46,7.41
0.816000,0.0198,-0.1098,0,2,72.46,7.41
0.818000,0.0107,-0.1130,0,2,72.46,7.41
0.820000,0.0178,-0.1170,0,2,72.46,7.41
0.822000,-0.0280,-0.1212,0,2,72.46,7.41
0.824000,-0.0051,-0.1246,0,2,72.46,7.41
0.826000,-0.0233,-0.1268,0,2,72.46,7.41
0.828000,-0.0156,-0.1273,0,2,72.46,7.41
0.830000,-0.0089,-0.1260,0,2,72.46,7.41
0.832000,0.0137,-0.1234,0,2,72.46,7.41
0.834000,-0.0084,-0.1199,0,2,72.46,7.41
0.836000,-0.0288,-0.1163,0,2,72.46,7.41
0.838000,0.0197,-0.1132,0,2,72.46,7.41
0.840000,0.0154,-0.1112,0,2,72.46,7.41
0.842000,0.0036,-0.1106,0,2,72.46,7.41
0.844000,-0.0130,-0.1114,0,2,72.46,7.41
0.846000,0.0455,-0.1135,0,2,72.46,7.41
0.848000,0.0003,-0.1162,0,2,72.46,7.41
0.850000,-0.0295,-0.1189,0,2,72.46,7.41
0.852000,-0.0069,-0.1211,0,2,72.46,7.41
0.854000,-0.0135,-0.1221,0,2,72.46,7.41
0.856000,-0.0051,-0.1221,0,2,72.46,7.41
0.858000,-0.0266,-0.1210,0,2,72.46,7.41
0.860000,0.0175,-0.1193,0,2,72.46,7.41
0.862000,-0.0068,-0.1175,0,2,72.46,7.41
0.864000,0.0420,-0.1160,0,2,72.46,7.41
0.866000,-0.0205,-0.1147,0,2,72.46,7.41
0.868000,0.0157,-0.1138,0,2,72.46,7.41
0.870000,-0.0072,-0.1127,0,2,72.46,7.41
0.872000,-0.0234,-0.1112,0,2,72.46,7.41
0.874000,0.0185,-0.1090,0,2,72.46,7.41
0.876000,0.0432,-0.1057,0,2,72.46,7.41
0.878000,-0.0287,-0.1015,0,2,72.46,7.41
0.880000,0.0279,-0.0966,0,2,72.46,7.41
0.882000,0.0192,-0.0914,0,2,72.46,7.41
0.884000,0.0409,-0.0864,0,2,72.46,7.41
0.886000,0.0270,-0.0819,0,2,72.46,7.41
0.888000,0.0466,-0.0781,0,2,72.46,7.41
0.890000,0.0548,-0.0749,0,2,72.46,7.41
0.892000,0.0529,-0.0720,0,2,72.46,7.41
0.894000,0.0333,-0.0686,0,2,72.46,7.41
0.896000,0.0468,-0.0642,0,2,72.46,7.41
0.898000,0.0587,-0.0582,0,2,72.46,7.41
0.900000,0.0616,-0.0501,0,2,72.46,7.41
0.902000,0.0621,-0.0402,0,2,72.46,7.41
0.904000,0.0754,-0.0288,0,2,72.46,7.41
0.906000,0.1068,-0.0169,0,2,72.46,7.41
0.908000,0.1156,-0.0054,0,2,72.46,7.41
0.910000,0.1463,0.0051,0,2,72.46,7.41
0.912000,0.1146,0.0139,0,2,72.46,7.41
0.914000,0.1513,0.0209,0,2,72.46,7.41
0.916000,0.1502,0.0265,0,2,72.46,7.41
0.918000,0.1350,0.0312,0,2,72.46,7.41
0.920000,0.1415,0.0356,0,2,72.46,7.41
0.922000,0.1491,0.0402,0,2,72.46,7.41
0.924000,0.1677,0.0452,0,2,72.46,7.41
0.926000,0.1407,0.0505,0,2,72.46,7.41
0.928000,0.1898,0.0554,0,2,72.46,7.41
0.930000,0.1668,0.0594,0,2,72.46,7.41
0.932000,0.1779,0.0617,0,2,72.46,7.41
0.934000,0.1819,0.0618,0,2,72.46,7.41
0.936000,0.1792,0.0595,0,2,72.46,7.41
0.938000,0.2084,0.0551,0,2,72.46,7.41
0.940000,0.1755,0.0492,0,2,72.46,7.41
0.942000,0.1148,0.0425,0,2,72.46,7.41
0.944000,0.1411,0.0358,0,2,72.46,7.41
0.946000,0.1393,0.0298,0,2,72.46,7.41
0.948000,0.1369,0.0244,0,2,72.46,7.41
0.950000,0.1217,0.0193,0,2,72.46,7.41
0.952000,0.1372,0.0141,0,2,72.46,7.41
0.954000,0.1244,0.0079,0,2,72.46,7.41
0.956000,0.1668,0.0005,0,2,72.46,7.41
0.958000,0.0988,-0.0084,0,2,72.46,7.41
0.960000,0.0871,-0.0184,0,2,72.46,7.41
0.962000,0.0823,-0.0291,0,2,72.46,7.41
0.964000,0.0548,-0.0397,0,2,72.46,7.41
0.966000,0.0677,-0.0498,0,2,72.46,7.41
0.968000,0.0550,-0.0588,0,2,72.46,7.41
0.970000,0.0375,-0.0667,0,2,72.46,7.41
0.972000,0.0433,-0.0734,0,2,72.46,7.41
0.974000,0.0531,-0.0790,0,2,72.46,7.41
0.976000,0.0360,-0.0835,0,2,72.46,7.41
0.978000,0.0256,-0.0871,0,2,72.46,7.41
0.980000,0.0449,-0.0897,0,2,72.46,7.41
0.982000,0.0178,-0.0912,0,2,72.46,7.41
0.984000,0.0148,-0.0917,0,2,72.46,7.41
0.986000,0.0018,-0.0916,0,2,72.46,7.41
0.988000,0.0244,-0.0913,0,2,72.46,7.41
0.990000,-0.0132,-0.0915,0,2,72.46,7.41
0.992000,0.0498,-0.0927,0,2,72.46,7.41
0.994000,0.0234,-0.0951,0,2,72.46,7.41
0.996000,0.0494,-0.0982,0,2,72.46,7.41
0.998000,-0.0062,-0.1005,0,2,72.46,7.41
1.000000,0.0037,-0.0996,0,2,72.46,7.41
1.002000,0.0263,-0.0919,0,2,72.46,7.41
1.004000,0.0498,-0.0731,0,2,72.46,7.41
1.006000,0.1188,-0.0386,0,2,72.46,7.41
1.008000,0.1413,0.0160,0,2,72.46,7.41
1.010000,0.1949,0.0943,0,2,72.46,7.41
1.012000,0.2787,0.1983,0,2,72.46,7.41
1.014000,0.3993,0.3275,0,2,72.46,7.41
1.016000,0.5801,0.4789,0,2,72.46,7.41
1.018000,0.7857,0.6464,0,2,72.46,7.41
1.020000,0.9310,0.8215,0,2,72.46,7.41
1.022000,1.1001,0.9940,0,2,72.46,7.41
1.024000,1.2948,1.1525,0,2,72.46,7.41
1.026000,1.4037,1.2862,0,2,72.46,7.41
1.028000,1.4858,1.3852,0,2,72.46,7.41
1.030000,1.5735,1.4420,1,2,72.46,7.41
1.032000,1.5594,1.4518,1,2,72.46,7.41
1.034000,1.5273,1.4135,1,2,72.46,7.41
1.036000,1.4290,1.3291,0,2,72.46,7.41
1.038000,1.3362,1.2042,0,2,72.46,7.41
1.040000,1.2025,1.0473,0,2,72.46,7.41
1.042000,0.9657,0.8691,0,2,72.46,7.41
1.044000,0.8167,0.6815,0,2,72.46,7.41
1.046000,0.6040,0.4963,0,2,72.46,7.41
1.048000,0.3997,0.3246,0,2,72.46,7.41
1.050000,0.2654,0.1751,0,2,72.46,7.41
1.052000,0.1400,0.0536,0,2,72.46,7.41
1.054000,0.0777,-0.0372,0,2,72.46,7.41
1.056000,0.0254,-0.0980,0,2,72.46,7.41
1.058000,-0.0391,-0.1317,0,2,72.46,7.41
1.060000,0.0126,-0.1435,0,2,72.46,7.41
1.062000,-0.0016,-0.1393,0,2,72.46,7.41
1.064000,-0.0227,-0.1250,0,2,72.46,7.41
1.066000,0.0353,-0.1062,0,2,72.46,7.41
1.068000,-0.0106,-0.0870,0,2,72.46,7.41
1.070000,0.0513,-0.0703,0,2,72.46,7.41
1.072000,0.0613,-0.0575,0,2,72.46,7.41
1.074000,0.0618,-0.0490,0,2,72.46,7.41
1.076000,0.0518,-0.0441,0,2,72.46,7.41
1.078000,0.0743,-0.0414,0,2,72.46,7.41
1.080000,0.0848,-0.0394,0,2,72.46,7.41
1.082000,0.0783,-0.0367,0,2,72.46,7.41
1.084000,0.0634,-0.0322,0,2,72.46,7.41
1.086000,0.0904,-0.0253,0,2,72.46,7.41
1.088000,0.0858,-0.0159,0,2,72.46,7.41
1.090000,0.1019,-0.0045,0,2,72.46,7.41
1.092000,0.1121,0.0080,0,2,72.46,7.41
1.094000,0.1531,0.0207,0,2,72.46,7.41
1.096000,0.1661,0.0328,0,2,72.46,7.41
1.098000,0.1639,0.0437,0,2,72.46,7.41
1.100000,0.1595,0.0533,0,2,72.46,7.41
1.102000,0.1570,0.0615,0,2,72.46,7.41
1.104000,0.1689,0.0687,0,2,72.46,7.41
1.106000,0.1895,0.0753,0,2,72.46,7.41
1.108000,0.2147,0.0817,0,2,72.46,7.41
1.110000,0.2016,0.0882,0,2,72.46,7.41
1.112000,0.1829,0.0951,0,2,72.46,7.41
1.114000,0.2089,0.1025,0,2,72.46,7.41
1.116000,0.2236,0.1105,0,2,72.46,7.41
1.118000,0.2383,0.1191,0,2,72.46,7.41
1.120000,0.2589,0.1283,0,2,72.46,7.41
1.122000,0.2573,0.1382,0,2,72.46,7.41
1.124000,0.2478,0.1487,0,2,72.46,7.41
1.126000,0.2677,0.1598,0,2,72.46,7.41
1.128000,0.2807,0.1714,0,2,72.46,7.41
1.130000,0.2745,0.1831,0,2,72.46,7.41
1.132000,0.3222,0.1947,0,2,72.46,7.41
1.134000,0.3013,0.2055,0,2,72.46,7.41
1.136000,0.3480,0.2151,0,2,72.46,7.41
1.138000,0.3242,0.2232,0,2,72.46,7.41
1.140000,0.3441,0.2293,0,2,72.46,7.41
1.142000,0.3525,0.2336,0,2,72.46,7.41
1.144000,0.3524,0.2362,0,2,72.46,7.41
1.146000,0.3575,0.2375,0,2,72.46,7.41
1.148000,0.3385,0.2378,0,2,72.46,7.41
1.150000,0.3368,0.2376,0,2,72.46,7.41
1.152000,0.3404,0.2370,0,2,72.46,7.41
1.154000,0.3135,0.2361,0,2,72.46,7.41
1.156000,0.3929,0.2349,0,2,72.46,7.41
1.158000,0.3423,0.2330,0,2,72.46,7.41
1.160000,0.3346,0.2302,0,2,72.46,7.41
1.162000,0.3595,0.2264,0,2,72.46,7.41
1.164000,0.3106,0.2216,0,2,72.46,7.41
1.166000,0.3179,0.2159,0,2,72.46,7.41
1.168000,0.3477,0.2094,0,2,72.46,7.41
1.170000,0.3078,0.2023,0,2,72.46,7.41
1.172000,0.3011,0.1949,0,2,72.46,7.41
1.174000,0.2651,0.1870,0,2,72.46,7.41
1.176000,0.2908,0.1786,0,2,72.46,7.41
1.178000,0.2897,0.1695,0,2,72.46,7.41
1.180000,0.2892,0.1596,0,2,72.46,7.41
1.182000,0.2378,0.1485,0,2,72.46,7.41
1.184000,0.2682,0.1365,0,2,72.46,7.41
1.186000,0.2427,0.1236,0,2,72.46,7.41
1.188000,0.2109,0.1104,0,2,72.46,7.41
1.190000,0.1956,0.0975,0,2,72.46,7.41
1.192000,0.2091,0.0856,0,2,72.46,7.41
1.194000,0.1703,0.0750,0,2,72.46,7.41
1.196000,0.1771,0.0661,0,2,72.46,7.41
1.198000,0.1546,0.0590,0,2,72.46,7.41
1.200000,0.1822,0.0531,0,2,72.46,7.41
1.202000,0.1280,0.0480,0,2,72.46,7.41
1.204000,0.1634,0.0429,0,2,72.46,7.41
1.206000,0.1666,0.0370,0,2,72.46,7.41
1.208000,0.1543,0.0301,0,2,72.46,7.41
1.210000,0.1232,0.0218,0,2,72.46,7.41
1.212000,0.1048,0.0124,0,2,72.46,7.41
1.214000,0.1309,0.0023,0,2,72.46,7.41
1.216000,0.0864,-0.0079,0,2,72.46,7.41
1.218000,0.0843,-0.0176,0,2,72.46,7.41
1.220000,0.0795,-0.0263,0,2,72.46,7.41
1.222000,0.0823,-0.0338,0,2,72.46,7.41
1.224000,0.0684,-0.0401,0,2,72.46,7.41
1.226000,0.0552,-0.0454,0,2,72.46,7.41
1.228000,0.0739,-0.0500,0,2,72.46,7.41
1.230000,0.0536,-0.0542,0,2,72.46,7.41
1.232000,0.0584,-0.0582,0,2,72.46,7.41
1.234000,0.0317,-0.0621,0,2,72.46,7.41
1.236000,0.0619,-0.0660,0,2,72.46,7.41
1.238000,0.0319,-0.0697,0,2,72.46,7.41
1.240000,0.0143,-0.0734,0,2,72.46,7.41
1.242000,0.0221,-0.0769,0,2,72.46,7.41
1.244000,0.0513,-0.0804,0,2,72.46,7.41
1.246000,0.0245,-0.0839,0,2,72.46,7.41
1.248000,0.0279,-0.0874,0,2,72.46,7.41
1.250000,0.0112,-0.0910,0,2,72.46,7.41
1.252000,0.0108,-0.0944,0,2,72.46,7.41
1.254000,0.0129,-0.0973,0,2,72.46,7.41
1.256000,0.0280,-0.0994,0,2,72.46,7.41
1.258000,-0.0002,-0.1003,0,2,72.46,7.41
1.260000,-0.0138,-0.1000,0,2,72.46,7.41
1.262000,0.0085,-0.0987,0,2,72.46,7.41
1.264000,0.0039,-0.0967,0,2,72.46,7.41
1.266000,0.0217,-0.0947,0,2,72.46,7.41
1.268000,0.0121,-0.0934,0,2,72.46,7.41
1.270000,0.0436,-0.0933,0,2,72.46,7.41
1.272000,-0.0132,-0.0949,0,2,72.46,7.41
1.274000,0.0322,-0.0979,0,2,72.46,7.41
1.276000,0.0150,-0.1020,0,2,72.46,7.41
1.278000,-0.0298,-0.1066,0,2,72.46,7.41
1.280000,0.0043,-0.1108,0,2,72.46,7.41
1.282000,0.0043,-0.1140,0,2,72.46,7.41
1.284000,-0.0166,-0.1156,0,2,72.46,7.41
1.286000,-0.0270,-0.1154,0,2,72.46,7.41
1.288000,-0.0031,-0.1135,0,2,72.46,7.41
1.290000,-0.0055,-0.1105,0,2,72.46,7.41
1.292000,0.0086,-0.1067,0,2,72.46,7.41
1.294000,0.0356,-0.1028,0,2,72.46,7.41
1.296000,0.0170,-0.0991,0,2,72.46,7.41
1.298000,-0.0338,-0.0958,0,2,72.46,7.41
1.300000,0.0097,-0.0933,0,2,72.46,7.41
1.302000,0.0349,-0.0915,0,2,72.46,7.41
1.304000,0.0149,-0.0906,0,2,72.46,7.41
1.306000,0.0079,-0.0906,0,2,72.46,7.41
1.308000,0.0075,-0.0915,0,2,72.46,7.41
1.310000,0.0386,-0.0932,0,2,72.46,7.41
1.312000,0.0309,-0.0954,0,2,72.46,7.41
1.314000,-0.0178,-0.0980,0,2,72.46,7.41
1.316000,-0.0020,-0.1004,0,2,72.46,7.41
1.318000,-0.0154,-0.1025,0,2,72.46,7.41
1.320000,0.0327,-0.1039,0,2,72.46,7.41
1.322000,-0.0002,-0.1047,0,2,72.46,7.41
1.324000,-0.0035,-0.1049,0,2,72.46,7.41
1.326000,-0.0042,-0.1047,0,2,72.46,7.41
1.328000,0.0161,-0.1042,0,2,72.46,7.41
1.330000,0.0156,-0.1036,0,2,72.46,7.41
1.332000,-0.0362,-0.1030,0,2,72.46,7.41
1.334000,0.0292,-0.1023,0,2,72.46,7.41
1.336000,-0.0034,-0.1016,0,2,72.46,7.41
1.338000,0.0188,-0.1008,0,2,72.46,7.41
1.340000,-0.0014,-0.0999,0,2,72.46,7.41
1.342000,-0.0041,-0.0989,0,2,72.46,7.41
1.344000,0.0100,-0.0979,0,2,72.46,7.41
1.346000,0.0287,-0.0971,0,2,72.46,7.41
1.348000,0.0071,-0.0967,0,2,72.46,7.41
1.350000,-0.0138,-0.0971,0,2,72.46,7.41
1.352000,-0.0001,-0.0983,0,2,72.46,7.41
1.354000,0.0127,-0.1007,0,2,72.46,7.41
1.356000,0.0280,-0.1040,0,2,72.46,7.41
1.358000,-0.0235,-0.1082,0,2,72.46,7.41
1.360000,-0.0019,-0.1126,0,2,72.46,7.41
1.362000,0.0211,-0.1166,0,2,72.46,7.41
1.364000,-0.0237,-0.1197,0,2,72.46,7.41
1.366000,-0.0580,-0.1211,0,2,72.46,7.41
1.368000,0.0098,-0.1207,0,2,72.46,7.41
1.370000,-0.0034,-0.1183,0,2,72.46,7.41
1.372000,-0.0459,-0.1145,0,2,72.46,7.41
1.374000,0.0012,-0.1099,0,2,72.46,7.41
1.376000,0.0063,-0.1054,0,2,72.46,7.41
1.378000,0.0123,-0.1020,0,2,72.46,7.41
1.380000,-0.0083,-0.1004,0,2,72.46,7.41
1.382000,0.0207,-0.1008,0,2,72.46,7.41
1.384000,0.0222,-0.1032,0,2,72.46,7.41
1.386000,0.0249,-0.1070,0,2,72.46,7.41
1.388000,-0.0495,-0.1113,0,2,72.46,7.41
1.390000,-0.0015,-0.1152,0,2,72.46,7.41
1.392000,-0.0457,-0.1179,0,2,72.46,7.41
1.394000,-0.0235,-0.1189,0,2,72.46,7.41
1.396000,0.0008,-0.1182,0,2,72.46,7.41
1.398000,-0.0035,-0.1160,0,2,72.46,7.41
1.400000,0.0108,-0.1130,0,2,72.46,7.41
1.402000,-0.0285,-0.1099,0,2,72.46,7.41
1.404000,0.0117,-0.1071,0,2,72.46,7.41
1.406000,-0.0098,-0.1052,0,2,72.46,7.41
1.408000,0.0212,-0.1041,0,2,72.46,7.41
1.410000,0.0246,-0.1037,0,2,72.46,7.41
1.412000,-0.0136,-0.1036,0,2,72.46,7.41
1.414000,-0.0537,-0.1034,0,2,72.46,7.41
1.416000,0.0156,-0.1028,0,2,72.46,7.41
1.418000,0.0086,-0.1016,0,2,72.46,7.41
1.420000,0.0069,-0.1000,0,2,72.46,7.41
1.422000,0.0190,-0.0982,0,2,72.46,7.41
1.424000,0.0085,-0.0965,0,2,72.46,7.41
1.426000,0.0233,-0.0951,0,2,72.46,7.41
1.428000,0.0084,-0.0943,0,2,72.46,7.41
1.430000,-0.0078,-0.0943,0,2,72.46,7.41
1.432000,-0.0080,-0.0949,0,2,72.46,7.41
1.434000,0.0160,-0.0963,0,2,72.46,7.41
1.436000,0.0028,-0.0984,0,2,72.46,7.41
1.438000,0.0207,-0.1009,0,2,72.46,7.41
1.440000,0.0042,-0.1037,0,2,72.46,7.41
1.442000,-0.0145,-0.1065,0,2,72.46,7.41
1.444000,0.0383,-0.1089,0,2,72.46,7.41
1.446000,-0.0434,-0.1105,0,2,72.46,7.41
1.448000,-0.0161,-0.1110,0,2,72.46,7.41
1.450000,-0.0224,-0.1106,0,2,72.46,7.41
1.452000,-0.0079,-0.1094,0,2,72.46,7.41
1.454000,0.0248,-0.1077,0,2,72.46,7.41
1.456000,0.0159,-0.1061,0,2,72.46,7.41
1.458000,-0.0354,-0.1048,0,2,72.46,7.41
1.460000,-0.0006,-0.1041,0,2,72.46,7.41
1.462000,0.0147,-0.1042,0,2,72.46,7.41
1.464000,0.0135,-0.1049,0,2,72.46,7.41
1.466000,-0.0231,-0.1060,0,2,72.46,7.41
1.468000,0.0017,-0.1073,0,2,72.46,7.41
1.470000,-0.0045,-0.1085,0,2,72.46,7.41
1.472000,0.0088,-0.1091,0,2,72.46,7.41
1.474000,-0.0473,-0.1091,0,2,72.46,7.41
1.476000,0.0246,-0.1084,0,2,72.46,7.41
1.478000,-0.0407,-0.1071,0,2,72.46,7.41
1.480000,0.0323,-0.1056,0,2,72.46,7.41
1.482000,0.0013,-0.1041,0,2,72.46,7.41
1.484000,-0.0055,-0.1031,0,2,72.46,7.41
1.486000,-0.0007,-0.1026,0,2,72.46,7.41
1.488000,0.0046,-0.1027,0,2,72.46,7.41
1.490000,0.0204,-0.1033,0,2,72.46,7.41
1.492000,-0.0303,-0.1041,0,2,72.46,7.41
1.494000,0.0095,-0.1048,0,2,72.46,7.41
1.496000,-0.0130,-0.1052,0,2,72.46,7.41
1.498000,-0.0098,-0.1052,0,2,72.46,7.41
1.500000,0.0061,-0.1046,0,2,72.46,7.41
1.502000,0.0033,-0.1037,0,2,72.46,7.41
1.504000,-0.0105,-0.1027,0,2,72.46,7.41
1.506000,0.0114,-0.1018,0,2,72.46,7.41
1.508000,0.0289,-0.1012,0,2,72.46,7.41
1.510000,0.0015,-0.1009,0,2,72.46,7.41
1.512000,-0.0251,-0.1008,0,2,72.46,7.41
1.514000,-0.0137,-0.1009,0,2,72.46,7.41
1.516000,-0.0001,-0.1011,0,2,72.46,7.41
1.518000,0.0205,-0.1015,0,2,72.46,7.41
1.520000,-0.0089,-0.1021,0,2,72.46,7.41
1.522000,0.0197,-0.1029,0,2,72.46,7.41
1.524000,-0.0098,-0.1039,0,2,72.46,7.41
1.526000,0.0194,-0.1051,0,2,72.46,7.41
1.528000,-0.0203,-0.1060,0,2,72.46,7.41
1.530000,-0.0112,-0.1065,0,2,72.46,7.41
1.532000,-0.0208,-0.1065,0,2,72.46,7.41
1.534000,-0.0027,-0.1057,0,2,72.46,7.41
1.536000,0.0227,-0.1043,0,2,72.46,7.41
1.538000,0.0061,-0.1024,0,2,72.46,7.41
1.540000,-0.0219,-0.1001,0,2,72.46,7.41
1.542000,0.0296,-0.0977,0,2,72.46,7.41
1.544000,-0.0256,-0.0955,0,2,72.46,7.41
1.546000,0.0364,-0.0937,0,2,72.46,7.41
1.548000,0.0077,-0.0926,0,2,72.46,7.41
1.550000,0.0053,-0.0923,0,2,72.46,7.41
1.552000,-0.0050,-0.0928,0,2,72.46,7.41
1.554000,0.0073,-0.0942,0,2,72.46,7.41
1.556000,0.0141,-0.0961,0,2,72.46,7.41
1.558000,0.0258,-0.0983,0,2,72.46,7.41
1.560000,0.0082,-0.1005,0,2,72.46,7.41
1.562000,-0.0228,-0.1022,0,2,72.46,7.41
1.564000,-0.0005,-0.1031,0,2,72.46,7.41
1.566000,-0.0169,-0.1032,0,2,72.46,7.41
1.568000,0.0045,-0.1023,0,2,72.46,7.41
1.570000,0.0036,-0.1007,0,2,72.46,7.41
1.572000,0.0237,-0.0987,0,2,72.46,7.41
1.574000,-0.0071,-0.0966,0,2,72.46,7.41
1.576000,0.0196,-0.0948,0,2,72.46,7.41
1.578000,-0.0208,-0.0935,0,2,72.46,7.41
1.580000,0.0176,-0.0928,0,2,72.46,7.41
1.582000,0.0259,-0.0929,0,2,72.46,7.41
1.584000,0.0005,-0.0935,0,2,72.46,7.41
1.586000,0.0094,-0.0947,0,2,72.46,7.41
1.588000,0.0255,-0.0959,0,2,72.46,7.41
1.590000,0.0132,-0.0970,0,2,72.46,7.41
1.592000,-0.0458,-0.0976,0,2,72.46,7.41
1.594000,-0.0194,-0.0978,0,2,72.46,7.41
1.596000,0.0334,-0.0974,0,2,72.46,7.41
1.598000,0.0238,-0.0969,0,2,72.46,7.41
1.600000,0.0233,-0.0964,0,2,72.46,7.41
1.602000,0.0094,-0.0962,0,2,72.46,7.41
1.604000,-0.0184,-0.0964,0,2,72.46,7.41
1.606000,-0.0165,-0.0972,0,2,72.46,7.41
1.608000,0.0156,-0.0984,0,2,72.46,7.41
1.610000,-0.0012,-0.1001,0,2,72.46,7.41
1.612000,0.0022,-0.1024,0,2,72.46,7.41
1.614000,-0.0037,-0.1049,0,2,72.46,7.41
1.616000,0.0145,-0.1076,0,2,72.46,7.41
1.618000,0.0043,-0.1100,0,2,72.46,7.41
1.620000,-0.0211,-0.1119,0,2,72.46,7.41
1.622000,-0.0527,-0.1129,0,2,72.46,7.41
1.624000,0.0110,-0.1128,0,2,72.46,7.41
1.626000,-0.0173,-0.1119,0,2,72.46,7.41
1.628000,0.0040,-0.1103,0,2,72.46,7.41
1.630000,-0.0007,-0.1085,0,2,72.46,7.41
1.632000,-0.0190,-0.1068,0,2,72.46,7.41
1.634000,-0.0297,-0.1057,0,2,72.46,7.41
1.636000,0.0293,-0.1055,0,2,72.46,7.41
1.638000,0.0017,-0.1061,0,2,72.46,7.41
1.640000,0.0078,-0.1076,0,2,72.46,7.41
1.642000,-0.0185,-0.1094,0,2,72.46,7.41
1.644000,-0.0228,-0.1111,0,2,72.46,7.41
1.646000,-0.0238,-0.1123,0,2,72.46,7.41
1.648000,-0.0001,-0.1126,0,2,72.46,7.41
1.650000,-0.0006,-0.1119,0,2,72.46,7.41
1.652000,-0.0170,-0.1101,0,2,72.46,7.41
1.654000,-0.0080,-0.1076,0,2,72.46,7.41
1.656000,-0.0172,-0.1049,0,2,72.46,7.41
1.658000,-0.0130,-0.1026,0,2,72.46,7.41
1.660000,0.0291,-0.1011,0,2,72.46,7.41
1.662000,0.0100,-0.1007,0,2,72.46,7.41
1.664000,0.0171,-0.1015,0,2,72.46,7.41
1.666000,-0.0226,-0.1032,0,2,72.46,7.41
1.668000,-0.0103,-0.1051,0,2,72.46,7.41
1.670000,-0.0132,-0.1065,0,2,72.46,7.41
1.672000,0.0218,-0.1069,0,2,72.46,7.41
1.674000,-0.0374,-0.1059,0,2,72.46,7.41
1.676000,-0.0011,-0.1035,0,2,72.46,7.41
1.678000,0.0091,-0.0999,0,2,72.46,7.41
1.680000,0.0131,-0.0958,0,2,72.46,7.41
1.682000,-0.0031,-0.0921,0,2,72.46,7.41
1.684000,-0.0135,-0.0895,0,2,72.46,7.41
1.686000,0.0554,-0.0887,0,2,72.46,7.41
1.688000,0.0034,-0.0901,0,2,72.46,7.41
1.690000,0.0183,-0.0934,0,2,72.46,7.41
1.692000,0.0127,-0.0980,0,2,72.46,7.41
1.694000,-0.0090,-0.1030,0,2,72.46,7.41
1.696000,-0.0332,-0.1074,0,2,72.46,7.41
1.698000,0.0042,-0.1103,0,2,72.46,7.41
1.700000,0.0022,-0.1109,0,2,72.46,7.41
1.702000,-0.0452,-0.1090,0,2,72.46,7.41
1.704000,0.0121,-0.1047,0,2,72.46,7.41
1.706000,-0.0023,-0.0985,0,2,72.46,7.41
1.708000,0.0268,-0.0912,0,2,72.46,7.41
1.710000,0.0166,-0.0833,0,2,72.46,7.41
1.712000,0.0196,-0.0755,0,2,72.46,7.41
1.714000,0.0233,-0.0684,0,2,72.46,7.41
1.716000,0.0548,-0.0622,0,2,72.46,7.41
1.718000,0.0594,-0.0568,0,2,72.46,7.41
1.720000,0.0671,-0.0519,0,2,72.46,7.41
1.722000,0.0032,-0.0473,0,2,72.46,7.41
1.724000,0.0608,-0.0425,0,2,72.46,7.41
1.726000,0.0755,-0.0373,0,2,72.46,7.41
1.728000,0.0416,-0.0314,0,2,72.46,7.41
1.730000,0.0889,-0.0247,0,2,72.46,7.41
1.732000,0.1180,-0.0173,0,2,72.46,7.41
1.734000,0.1048,-0.0093,0,2,72.46,7.41
1.736000,0.0539,-0.0008,0,2,72.46,7.41
1.738000,0.1214,0.0080,0,2,72.46,7.41
1.740000,0.1239,0.0170,0,2,72.46,7.41
1.742000,0.1038,0.0258,0,2,72.46,7.41
1.744000,0.1469,0.0342,0,2,72.46,7.41
1.746000,0.1593,0.0417,0,2,72.46,7.41
1.748000,0.1378,0.0484,0,2,72.46,7.41
1.750000,0.1665,0.0541,0,2,72.46,7.41
1.752000,0.1376,0.0590,0,2,72.46,7.41
1.754000,0.1881,0.0633,0,2,72.46,7.41
1.756000,0.1557,0.0670,0,2,72.46,7.41
1.758000,0.1727,0.0703,0,2,72.46,7.41
1.760000,0.1663,0.0732,0,2,72.46,7.41
1.762000,0.2113,0.0754,0,2,72.46,7.41
1.764000,0.1484,0.0768,0,2,72.46,7.41
1.766000,0.1638,0.0768,0,2,72.46,7.41
1.768000,0.1737,0.0753,0,2,72.46,7.41
1.770000,0.1651,0.0717,0,2,72.46,7.41
1.772000,0.1747,0.0660,0,2,72.46,7.41
1.774000,0.1975,0.0581,0,2,72.46,7.41
1.776000,0.1505,0.0486,0,2,72.46,7.41
1.778000,0.1494,0.0382,0,2,72.46,7.41
1.780000,0.1311,0.0277,0,2,72.46,7.41
1.782000,0.0707,0.0180,0,2,72.46,7.41
1.784000,0.0909,0.0097,0,2,72.46,7.41
1.786000,0.1275,0.0028,0,2,72.46,7.41
1.788000,0.0990,-0.0028,0,2,72.46,7.41
1.790000,0.0950,-0.0077,0,2,72.46,7.41
1.792000,0.0771,-0.0127,0,2,72.46,7.41
1.794000,0.1015,-0.0185,0,2,72.46,7.41
1.796000,0.0712,-0.0255,0,2,72.46,7.41
1.798000,0.0809,-0.0339,0,2,72.46,7.41
1.800000,0.0738,-0.0435,0,2,72.46,7.41
1.802000,0.0363,-0.0537,0,2,72.46,7.41
1.804000,0.0432,-0.0637,0,2,72.46,7.41
1.806000,-0.0002,-0.0728,0,2,72.46,7.41
1.808000,-0.0060,-0.0804,0,2,72.46,7.41
1.810000,0.0308,-0.0862,0,2,72.46,7.41
1.812000,0.0203,-0.0905,0,2,72.46,7.41
1.814000,-0.0006,-0.0936,0,2,72.46,7.41
1.816000,0.0375,-0.0962,0,2,72.46,7.41
1.818000,0.0151,-0.0988,0,2,72.46,7.41
1.820000,-0.0448,-0.1020,0,2,72.46,7.41
1.822000,0.0021,-0.1059,0,2,72.46,7.41
1.824000,-0.0183,-0.1101,0,2,72.46,7.41
1.826000,-0.0347,-0.1137,0,2,72.46,7.41
1.828000,0.0145,-0.1151,0,2,72.46,7.41
1.830000,-0.0041,-0.1119,0,2,72.46,7.41
1.832000,0.0200,-0.1010,0,2,72.46,7.41
1.834000,0.0025,-0.0784,0,2,72.46,7.41
1.836000,0.0676,-0.0400,0,2,72.46,7.41
1.838000,0.1537,0.0180,0,2,72.46,7.41
1.840000,0.1909,0.0989,0,2,72.46,7.41
1.842000,0.2999,0.2045,0,2,72.46,7.41
1.844000,0.4419,0.3343,0,2,72.46,7.41
1.846000,0.5309,0.4858,0,2,72.46,7.41
1.848000,0.7254,0.6534,0,2,72.46,7.41
1.850000,0.9286,0.8291,0,2,72.46,7.41
1.852000,1.1027,1.0030,0,2,72.46,7.41
1.854000,1.3022,1.1640,0,2,72.46,7.41
1.856000,1.4275,1.3009,0,2,72.46,7.41
1.858000,1.5063,1.4039,0,2,72.46,7.41
1.860000,1.5664,1.4652,1,2,72.46,7.41
1.862000,1.5690,1.4797,1,2,72.46,7.41
1.864000,1.5355,1.4461,1,2,72.46,7.41
1.866000,1.4736,1.3661,0,2,72.46,7.41
1.868000,1.3616,1.2452,0,2,72.46,7.41
1.870000,1.2177,1.0915,0,2,72.46,7.41
1.872000,1.0259,0.9154,0,2,72.46,7.41
1.874000,0.8155,0.7286,0,2,72.46,7.41
1.876000,0.6219,0.5428,0,2,72.46,7.41
1.878000,0.4812,0.3685,0,2,72.46,7.41
1.880000,0.2859,0.2145,0,2,72.46,7.41
1.882000,0.1744,0.0867,0,2,72.46,7.41
1.884000,0.0586,-0.0118,0,2,72.46,7.41
1.886000,0.0472,-0.0809,0,2,72.46,7.41
1.888000,-0.0255,-0.1228,0,2,72.46,7.41
1.890000,-0.0174,-0.1418,0,2,72.46,7.41
1.892000,-0.0349,-0.1430,0,2,72.46,7.41
1.894000,-0.0322,-0.1319,0,2,72.46,7.41
1.896000,0.0059,-0.1136,0,2,72.46,7.41
1.898000,-0.0214,-0.0927,0,2,72.46,7.41
1.900000,0.0602,-0.0723,0,2,72.46,7.41
1.902000,0.0640,-0.0547,0,2,72.46,7.41
1.904000,0.0198,-0.0410,0,2,72.46,7.41
1.906000,0.0551,-0.0313,0,2,72.46,7.41
1.908000,0.0964,-0.0249,0,2,72.46,7.41
1.910000,0.0900,-0.0211,0,2,72.46,7.41
1.912000,0.0576,-0.0187,0,2,72.46,7.41
1.914000,0.0777,-0.0167,0,2,72.46,7.41
1.916000,0.0964,-0.0143,0,2,72.46,7.41
1.918000,0.1030,-0.0110,0,2,72.46,7.41
1.920000,0.0803,-0.0064,0,2,72.46,7.41
1.922000,0.1047,-0.0003,0,2,72.46,7.41
1.924000,0.1269,0.0074,0,2,72.46,7.41
1.926000,0.1402,0.0168,0,2,72.46,7.41
1.928000,0.0926,0.0277,0,2,72.46,7.41
1.930000,0.1297,0.0399,0,2,72.46,7.41
1.932000,0.1309,0.0531,0,2,72.46,7.41
1.934000,0.1914,0.0666,0,2,72.46,7.41
1.936000,0.1802,0.0798,0,2,72.46,7.41
1.938000,0.2160,0.0919,0,2,72.46,7.41
1.940000,0.2060,0.1027,0,2,72.46,7.41
1.942000,0.2078,0.1120,0,2,72.46,7.41
1.944000,0.2213,0.1203,0,2,72.46,7.41
1.946000,0.2469,0.1281,0,2,72.46,7.41
1.948000,0.1998,0.1361,0,2,72.46,7.41
1.950000,0.2501,0.1448,0,2,72.46,7.41
1.952000,0.2456,0.1546,0,2,72.46,7.41
1.954000,0.2955,0.1656,0,2,72.46,7.41
1.956000,0.2726,0.1772,0,2,72.46,7.41
1.958000,0.2617,0.1890,0,2,72.46,7.41
1.960000,0.3161,0.2001,0,2,72.46,7.41
1.962000,0.3080,0.2097,0,2,72.46,7.41
1.964000,0.3441,0.2173,0,2,72.46,7.41
1.966000,0.3151,0.2228,0,2,72.46,7.41
1.968000,0.3282,0.2261,0,2,72.46,7.41
1.970000,0.3392,0.2278,0,2,72.46,7.41
1.972000,0.3026,0.2286,0,2,72.46,7.41
1.974000,0.3551,0.2291,0,2,72.46,7.41
1.976000,0.3148,0.2298,0,2,72.46,7.41
1.978000,0.3323,0.2311,0,2,72.46,7.41
1.980000,0.3249,0.2329,0,2,72.46,7.41
1.982000,0.3348,0.2349,0,2,72.46,7.41
1.984000,0.3491,0.2365,0,2,72.46,7.41
1.986000,0.3361,0.2371,0,2,72.46,7.41
1.988000,0.3249,0.2364,0,2,72.46,7.41
1.990000,0.3498,0.2341,0,2,72.46,7.41
1.992000,0.3665,0.2300,0,2,72.46,7.41
1.994000,0.3078,0.2246,0,2,72.46,7.41
1.996000,0.3099,0.2180,0,2,72.46,7.41
1.998000,0.3001,0.2108,0,2,72.46,7.41
2.000000,0.2896,0.2032,0,2,72.46,7.41
2.002000,0.3123,0.1953,0,2,72.46,7.41
2.004000,0.3000,0.1872,0,2,72.46,7.41
2.006000,0.2765,0.1789,0,2,72.46,7.41
2.008000,0.2546,0.1701,0,2,72.46,7.41
2.010000,0.2593,0.1608,0,2,72.46,7.41
2.012000,0.2831,0.1512,0,2,72.46,7.41
2.014000,0.2425,0.1412,0,2,72.46,7.41
2.016000,0.2181,0.1313,0,2,72.46,7.41
2.018000,0.2611,0.1215,0,2,72.46,7.41
2.020000,0.1850,0.1122,0,2,72.46,7.41
2.022000,0.1650,0.1032,0,2,72.46,7.41
2.024000,0.1892,0.0946,0,2,72.46,7.41
2.026000,0.2301,0.0859,0,2,72.46,7.41
2.028000,0.1610,0.0769,0,2,72.46,7.41
2.030000,0.1833,0.0675,0,2,72.46,7.41
2.032000,0.1796,0.0575,0,2,72.46,7.41
2.034000,0.1401,0.0474,0,2,72.46,7.41
2.036000,0.1637,0.0374,0,2,72.46,7.41
2.038000,0.0843,0.0280,0,2,72.46,7.41
2.040000,0.0942,0.0194,0,2,72.46,7.41
2.042000,0.1193,0.0117,0,2,72.46,7.41
2.044000,0.1372,0.0046,0,2,72.46,7.41
2.046000,0.1068,-0.0021,0,2,72.46,7.41
2.048000,0.0765,-0.0088,0,2,72.46,7.41
2.050000,0.0916,-0.0155,0,2,72.46,7.41
2.052000,0.0653,-0.0224,0,2,72.46,7.41
2.054000,0.1081,-0.0294,0,2,72.46,7.41
2.056000,0.0572,-0.0362,0,2,72.46,7.41
2.058000,0.0519,-0.0427,0,2,72.46,7.41
2.060000,0.0313,-0.0486,0,2,72.46,7.41
2.062000,0.0497,-0.0541,0,2,72.46,7.41
2.064000,0.0416,-0.0590,0,2,72.46,7.41
2.066000,0.0604,-0.0636,0,2,72.46,7.41
2.068000,0.0055,-0.0680,0,2,72.46,7.41
2.070000,0.0532,-0.0723,0,2,72.46,7.41
2.072000,0.0350,-0.0764,0,2,72.46,7.41
2.074000,0.0092,-0.0805,0,2,72.46,7.41
2.076000,0.0257,-0.0842,0,2,72.46,7.41
2.078000,-0.0228,-0.0876,0,2,72.46,7.41
2.080000,0.0378,-0.0906,0,2,72.46,7.41
2.082000,0.0087,-0.0932,0,2,72.46,7.41
2.084000,0.0020,-0.0955,0,2,72.46,7.41
2.086000,0.0068,-0.0973,0,2,72.46,7.41
2.088000,0.0122,-0.0989,0,2,72.46,7.41
2.090000,-0.0261,-0.1001,0,2,72.46,7.41
2.092000,0.0152,-0.1011,0,2,72.46,7.41
2.094000,0.0111,-0.1018,0,2,72.46,7.41
2.096000,-0.0042,-0.1023,0,2,72.46,7.41
2.098000,-0.0104,-0.1028,0,2,72.46,7.41
2.100000,0.0058,-0.1034,0,2,72.46,7.41
2.102000,-0.0147,-0.1042,0,2,72.46,7.41
2.104000,0.0281,-0.1054,0,2,72.46,7.41
2.106000,-0.0375,-0.1069,0,2,72.46,7.41
2.108000,-0.0162,-0.1089,0,2,72.46,7.41
2.110000,-0.0081,-0.1112,0,2,72.46,7.41
2.112000,0.0014,-0.1138,0,2,72.46,7.41
2.114000,0.0242,-0.1164,0,2,72.46,7.41
2.116000,-0.0495,-0.1186,0,2,72.46,7.41
2.118000,-0.0140,-0.1201,0,2,72.46,7.41
2.120000,-0.0170,-0.1205,0,2,72.46,7.41
2.122000,-0.0258,-0.1196,0,2,72.46,7.41
2.124000,-0.0388,-0.1176,0,2,72.46,7.41
2.126000,0.0136,-0.1146,0,2,72.46,7.41
2.128000,-0.0470,-0.1112,0,2,72.46,7.41
2.130000,0.0367,-0.1079,0,2,72.46,7.41
2.132000,-0.0134,-0.1052,0,2,72.46,7.41
2.134000,0.0084,-0.1035,0,2,72.46,7.41
2.136000,-0.0094,-0.1027,0,2,72.46,7.41
2.138000,0.0049,-0.1029,0,2,72.46,7.41
2.140000,-0.0004,-0.1036,0,2,72.46,7.41
2.142000,-0.0083,-0.1044,0,2,72.46,7.41
2.144000,-0.0171,-0.1048,0,2,72.46,7.41
2.146000,0.0355,-0.1045,0,2,72.46,7.41
2.148000,-0.0095,-0.1034,0,2,72.46,7.41
2.150000,-0.0363,-0.1014,0,2,72.46,7.41
2.152000,-0.0186,-0.0990,0,2,72.46,7.41
2.154000,0.0160,-0.0968,0,2,72.46,7.41
2.156000,0.0399,-0.0953,0,2,72.46,7.41
2.158000,0.0197,-0.0951,0,2,72.46,7.41
2.160000,-0.0160,-0.0964,0,2,72.46,7.41
2.162000,0.0261,-0.0989,0,2,72.46,7.41
2.164000,0.0214,-0.1021,0,2,72.46,7.41
2.166000,-0.0223,-0.1050,0,2,72.46,7.41
2.168000,-0.0281,-0.1070,0,2,72.46,7.41
2.170000,-0.0331,-0.1074,0,2,72.46,7.41
2.172000,0.0058,-0.1062,0,2,72.46,7.41
2.174000,-0.0109,-0.1037,0,2,72.46,7.41
2.176000,0.0114,-0.1006,0,2,72.46,7.41
2.178000,0.0347,-0.0978,0,2,72.46,7.41
2.180000,0.0169,-0.0959,0,2,72.46,7.41
2.182000,-0.0025,-0.0953,0,2,72.46,7.41
2.184000,0.0069,-0.0959,0,2,72.46,7.41
2.186000,0.0079,-0.0974,0,2,72.46,7.41
2.188000,-0.0165,-0.0994,0,2,72.46,7.41
2.190000,-0.0103,-0.1015,0,2,72.46,7.41
2.192000,-0.0193,-0.1032,0,2,72.46,7.41
2.194000,0.0150,-0.1045,0,2,72.46,7.41
2.196000,0.0387,-0.1055,0,2,72.46,7.41
2.198000,-0.0513,-0.1061,0,2,72.46,7.41
2.200000,0.0320,-0.1065,0,2,72.46,7.41
2.202000,-0.0133,-0.1068,0,2,72.46,7.41
2.204000,-0.0187,-0.1070,0,2,72.46,7.41
2.206000,0.0056,-0.1069,0,2,72.46,7.41
2.208000,-0.0244,-0.1065,0,2,72.46,7.41
2.210000,0.0227,-0.1058,0,2,72.46,7.41
2.212000,-0.0145,-0.1048,0,2,72.46,7.41
2.214000,-0.0022,-0.1037,0,2,72.46,7.41
2.216000,0.0035,-0.1027,0,2,72.46,7.41
2.218000,-0.0103,-0.1023,0,2,72.46,7.41
2.220000,-0.0193,-0.1028,0,2,72.46,7.41
2.222000,0.0288,-0.1045,0,2,72.46,7.41
2.224000,-0.0214,-0.1076,0,2,72.46,7.41
2.226000,0.0037,-0.1118,0,2,72.46,7.41
2.228000,-0.0089,-0.1165,0,2,72.46,7.41
2.230000,0.0021,-0.1211,0,2,72.46,7.41
2.232000,-0.0274,-0.1246,0,2,72.46,7.41
2.234000,-0.0405,-0.1262,0,2,72.46,7.41
2.236000,-0.0468,-0.1253,0,2,72.46,7.41
2.238000,-0.0220,-0.1222,0,2,72.46,7.41
2.240000,-0.0319,-0.1173,0,2,72.46,7.41
2.242000,0.0130,-0.1117,0,2,72.46,7.41
2.244000,0.0071,-0.1065,0,2,72.46,7.41
2.246000,-0.0147,-0.1029,0,2,72.46,7.41
2.248000,0.0479,-0.1013,0,2,72.46,7.41
2.250000,-0.0154,-0.1020,0,2,72.46,7.41
2.252000,-0.0122,-0.1044,0,2,72.46,7.41
2.254000,-0.0137,-0.1078,0,2,72.46,7.41
2.256000,-0.0041,-0.1111,0,2,72.46,7.41
2.258000,-0.0184,-0.1135,0,2,72.46,7.41
2.260000,0.0070,-0.1142,0,2,72.46,7.41
2.262000,-0.0186,-0.1130,0,2,72.46,7.41
2.264000,-0.0358,-0.1098,0,2,72.46,7.41
2.266000,-0.0087,-0.1053,0,2,72.46,7.41
2.268000,0.0350,-0.1001,0,2,72.46,7.41
2.270000,-0.0140,-0.0954,0,2,72.46,7.41
2.272000,0.0435,-0.0919,0,2,72.46,7.41
2.274000,-0.0260,-0.0903,0,2,72.46,7.41
2.276000,0.0285,-0.0912,0,2,72.46,7.41
2.278000,0.0334,-0.0943,0,2,72.46,7.41
2.280000,-0.0216,-0.0992,0,2,72.46,7.41
2.282000,0.0066,-0.1053,0,2,72.46,7.41
2.284000,0.0050,-0.1113,0,2,72.46,7.41
2.286000,-0.0269,-0.1164,0,2,72.46,7.41
2.288000,-0.0276,-0.1196,0,2,72.46,7.41
2.290000,-0.0284,-0.1205,0,2,72.46,7.41
2.292000,-0.0281,-0.1191,0,2,72.46,7.41
2.294000,-0.0133,-0.1156,0,2,72.46,7.41
2.296000,0.0005,-0.1109,0,2,72.46,7.41
2.298000,0.0147,-0.1059,0,2,72.46,7.41
2.300000,0.0241,-0.1013,0,2,72.46,7.41
2.302000,-0.0054,-0.0976,0,2,72.46,7.41
2.304000,-0.0173,-0.0951,0,2,72.46,7.41
2.306000,0.0121,-0.0937,0,2,72.46,7.41
2.308000,0.0139,-0.0931,0,2,72.46,7.41
2.310000,0.0329,-0.0930,0,2,72.46,7.41
2.312000,-0.0252,-0.0930,0,2,72.46,7.41
2.314000,0.0039,-0.0929,0,2,72.46,7.41
2.316000,0.0149,-0.0928,0,2,72.46,7.41
2.318000,0.0007,-0.0927,0,2,72.46,7.41
2.320000,0.0390,-0.0927,0,2,72.46,7.41
2.322000,0.0138,-0.0930,0,2,72.46,7.41
2.324000,0.0163,-0.0936,0,2,72.46,7.41
2.326000,-0.0006,-0.0943,0,2,72.46,7.41
2.328000,-0.0340,-0.0948,0,2,72.46,7.41
2.330000,0.0216,-0.0951,0,2,72.46,7.41
2.332000,0.0281,-0.0949,0,2,72.46,7.41
2.334000,0.0094,-0.0942,0,2,72.46,7.41
2.336000,0.0140,-0.0931,0,2,72.46,7.41
2.338000,-0.0023,-0.0919,0,2,72.46,7.41
2.340000,0.0150,-0.0908,0,2,72.46,7.41
2.342000,-0.0103,-0.0903,0,2,72.46,7.41
2.344000,0.0062,-0.0908,0,2,72.46,7.41
2.346000,0.0552,-0.0924,0,2,72.46,7.41
2.348000,-0.0021,-0.0953,0,2,72.46,7.41
2.350000,-0.0033,-0.0993,0,2,72.46,7.41
2.352000,-0.0104,-0.1040,0,2,72.46,7.41
2.354000,-0.0212,-0.1089,0,2,72.46,7.41
2.356000,0.0180,-0.1133,0,2,72.46,7.41
2.358000,0.0146,-0.1166,0,2,72.46,7.41
2.360000,-0.0384,-0.1185,0,2,72.46,7.41
2.362000,-0.0692,-0.1187,0,2,72.46,7.41
2.364000,0.0108,-0.1171,0,2,72.46,7.41
2.366000,0.0036,-0.1141,0,2,72.46,7.41
2.368000,-0.0176,-0.1100,0,2,72.46,7.41
2.370000,0.0011,-0.1055,0,2,72.46,7.41
2.372000,-0.0017,-0.1011,0,2,72.46,7.41
2.374000,0.0182,-0.0973,0,2,72.46,7.41
2.376000,-0.0118,-0.0945,0,2,72.46,7.41
2.378000,0.0409,-0.0927,0,2,72.46,7.41
2.380000,0.0092,-0.0921,0,2,72.46,7.41
2.382000,-0.0102,-0.0923,0,2,72.46,7.41
2.384000,0.0268,-0.0933,0,2,72.46,7.41
2.386000,-0.0175,-0.0946,0,2,72.46,7.41
2.388000,-0.0090,-0.0962,0,2,72.46,7.41
2.390000,0.0047,-0.0979,0,2,72.46,7.41
2.392000,0.0267,-0.0996,0,2,72.46,7.41
2.394000,0.0181,-0.1012,0,2,72.46,7.41
2.396000,0.0261,-0.1027,0,2,72.46,7.41
2.398000,-0.0482,-0.1039,0,2,72.46,7.41
2.400000,0.0035,-0.1046,0,2,72.46,7.41
2.402000,0.0002,-0.1046,0,2,72.46,7.41
2.404000,-0.0085,-0.1040,0,2,72.46,7.41
2.406000,-0.0177,-0.1031,0,2,72.46,7.41
2.408000,0.0016,-0.1020,0,2,72.46,7.41
2.410000,0.0166,-0.1011,0,2,72.46,7.41
2.412000,0.0139,-0.1006,0,2,72.46,7.41
2.414000,0.0047,-0.1004,0,2,72.46,7.41
2.416000,0.0068,-0.1005,0,2,72.46,7.41
2.418000,-0.0059,-0.1006,0,2,72.46,7.41
2.420000,0.0314,-0.1004,0,2,72.46,7.41
2.422000,-0.0233,-0.0997,0,2,72.46,7.41
2.424000,-0.0265,-0.0985,0,2,72.46,7.41
2.426000,-0.0258,-0.0972,0,2,72.46,7.41
2.428000,0.0294,-0.0963,0,2,72.46,7.41
2.430000,0.0361,-0.0964,0,2,72.46,7.41
2.432000,-0.0115,-0.0979,0,2,72.46,7.41
2.434000,0.0548,-0.1008,0,2,72.46,7.41
2.436000,-0.0049,-0.1049,0,2,72.46,7.41
2.438000,-0.0255,-0.1093,0,2,72.46,7.41
2.440000,-0.0088,-0.1132,0,2,72.46,7.41
2.442000,-0.0435,-0.1159,0,2,72.46,7.41
2.444000,-0.0252,-0.1169,0,2,72.46,7.41
2.446000,-0.0174,-0.1162,0,2,72.46,7.41
2.448000,-0.0074,-0.1142,0,2,72.46,7.41
2.450000,-0.0017,-0.1116,0,2,72.46,7.41
2.452000,0.0123,-0.1091,0,2,72.46,7.41
2.454000,-0.0023,-0.1073,0,2,72.46,7.41
2.456000,0.0137,-0.1067,0,2,72.46,7.41
2.458000,-0.0222,-0.1071,0,2,72.46,7.41
2.460000,0.0002,-0.1082,0,2,72.46,7.41
2.462000,-0.0347,-0.1097,0,2,72.46,7.41
2.464000,0.0084,-0.1110,0,2,72.46,7.41
2.466000,-0.0206,-0.1117,0,2,72.46,7.41
2.468000,0.0049,-0.1116,0,2,72.46,7.41
2.470000,-0.0359,-0.1105,0,2,72.46,7.41
2.472000,0.0104,-0.1086,0,2,72.46,7.41
2.474000,-0.0002,-0.1063,0,2,72.46,7.41
2.476000,0.0082,-0.1039,0,2,72.46,7.41
2.478000,-0.0011,-0.1019,0,2,72.46,7.41
2.480000,-0.0286,-0.1005,0,2,72.46,7.41
2.482000,0.0341,-0.0999,0,2,72.46,7.41
2.484000,-0.0051,-0.0999,0,2,72.46,7.41
2.486000,0.0301,-0.1003,0,2,72.46,7.41
2.488000,-0.0306,-0.1005,0,2,72.46,7.41
2.490000,0.0075,-0.1002,0,2,72.46,7.41
2.492000,0.0181,-0.0990,0,2,72.46,7.41
2.494000,-0.0274,-0.0969,0,2,72.46,7.41
2.496000,-0.0072,-0.0941,0,2,72.46,7.41
2.498000,0.0207,-0.0911,0,2,72.46,7.41
2.500000,0.0730,-0.0885,0,2,72.46,7.41
2.502000,-0.0113,-0.0868,0,2,72.46,7.41
2.504000,0.0032,-0.0865,0,2,72.46,7.41
2.506000,0.0197,-0.0875,0,2,72.46,7.41
2.508000,-0.0101,-0.0897,0,2,72.46,7.41
2.510000,0.0185,-0.0926,0,2,72.46,7.41
2.512000,0.0498,-0.0956,0,2,72.46,7.41
2.514000,0.0030,-0.0980,0,2,72.46,7.41
2.516000,-0.0203,-0.0994,0,2,72.46,7.41
2.518000,0.0029,-0.0994,0,2,72.46,7.41
2.520000,-0.0107,-0.0979,0,2,72.46,7.41
2.522000,-0.0381,-0.0954,0,2,72.46,7.41
2.524000,0.0354,-0.0924,0,2,72.46,7.41
2.526000,0.0565,-0.0897,0,2,72.46,7.41
2.528000,0.0262,-0.0877,0,2,72.46,7.41
2.530000,-0.0017,-0.0867,0,2,72.46,7.41
2.532000,0.0141,-0.0864,0,2,72.46,7.41
2.534000,0.0146,-0.0864,0,2,72.46,7.41
2.536000,0.0268,-0.0860,0,2,72.46,7.41
2.538000,-0.0146,-0.0848,0,2,72.46,7.41
2.540000,0.0239,-0.0823,0,2,72.46,7.41
2.542000,0.0315,-0.0784,0,2,72.46,7.41
2.544000,0.0420,-0.0729,0,2,72.46,7.41
2.546000,0.0437,-0.0663,0,2,72.46,7.41
2.548000,0.0116,-0.0587,0,2,72.46,7.41
2.550000,0.0372,-0.0507,0,2,72.46,7.41
2.552000,0.0844,-0.0427,0,2,72.46,7.41
2.554000,0.0807,-0.0350,0,2,72.46,7.41
2.556000,0.0880,-0.0278,0,2,72.46,7.41
2.558000,0.0603,-0.0211,0,2,72.46,7.41
2.560000,0.1033,-0.0147,0,2,72.46,7.41
2.562000,0.0754,-0.0081,0,2,72.46,7.41
2.564000,0.1007,-0.0011,0,2,72.46,7.41
2.566000,0.1044,0.0067,0,2,72.46,7.41
2.568000,0.1278,0.0152,0,2,72.46,7.41
2.570000,0.0965,0.0245,0,2,72.46,7.41
2.572000,0.1548,0.0341,0,2,72.46,7.41
2.574000,0.1973,0.0437,0,2,72.46,7.41
2.576000,0.1022,0.0527,0,2,72.46,7.41
2.578000,0.1689,0.0605,0,2,72.46,7.41
2.580000,0.1510,0.0666,0,2,72.46,7.41
2.582000,0.2059,0.0706,0,2,72.46,7.41
2.584000,0.1516,0.0721,0,2,72.46,7.41
2.586000,0.1760,0.0713,0,2,72.46,7.41
2.588000,0.1809,0.0683,0,2,72.46,7.41
2.590000,0.1853,0.0638,0,2,72.46,7.41
2.592000,0.1695,0.0585,0,2,72.46,7.41
2.594000,0.1167,0.0531,0,2,72.46,7.41
2.596000,0.1477,0.0482,0,2,72.46,7.41
2.598000,0.1340,0.0443,0,2,72.46,7.41
2.600000,0.1660,0.0413,0,2,72.46,7.41
2.602000,0.1324,0.0390,0,2,72.46,7.41
2.604000,0.1634,0.0368,0,2,72.46,7.41
2.606000,0.1151,0.0344,0,2,72.46,7.41
2.608000,0.1384,0.0313,0,2,72.46,7.41
2.610000,0.1227,0.0271,0,2,72.46,7.41
2.612000,0.1366,0.0218,0,2,72.46,7.41
2.614000,0.1077,0.0152,0,2,72.46,7.41
2.616000,0.1226,0.0074,0,2,72.46,7.41
2.618000,0.0858,-0.0014,0,2,72.46,7.41
2.620000,0.0898,-0.0108,0,2,72.46,7.41
2.622000,0.1060,-0.0206,0,2,72.46,7.41
2.624000,0.0691,-0.0305,0,2,72.46,7.41
2.626000,0.0428,-0.0400,0,2,72.46,7.41
2.628000,0.0152,-0.0490,0,2,72.46,7.41
2.630000,0.0668,-0.0574,0,2,72.46,7.41
2.632000,0.0591,-0.0650,0,2,72.46,7.41
2.634000,0.0706,-0.0718,0,2,72.46,7.41
2.636000,-0.0080,-0.0777,0,2,72.46,7.41
2.638000,0.0137,-0.0826,0,2,72.46,7.41
2.640000,-0.0038,-0.0867,0,2,72.46,7.41
2.642000,0.0107,-0.0901,0,2,72.46,7.41
2.644000,0.0161,-0.0932,0,2,72.46,7.41
2.646000,0.0087,-0.0964,0,2,72.46,7.41
2.648000,0.0150,-0.0998,0,2,72.46,7.41
2.650000,-0.0247,-0.1035,0,2,72.46,7.41
2.652000,0.0005,-0.1072,0,2,72.46,7.41
2.654000,-0.0230,-0.1097,0,2,72.46,7.41
2.656000,0.0197,-0.1096,0,2,72.46,7.41
2.658000,0.0047,-0.1044,0,2,72.46,7.41
2.660000,0.0019,-0.0913,0,2,72.46,7.41
2.662000,0.0344,-0.0669,0,2,72.46,7.41
2.664000,0.0628,-0.0276,0,2,72.46,7.41
2.666000,0.1655,0.0302,0,2,72.46,7.41
2.668000,0.2262,0.1092,0,2,72.46,7.41
2.670000,0.2880,0.2110,0,2,72.46,7.41
2.672000,0.4263,0.3356,0,2,72.46,7.41
2.674000,0.5313,0.4808,0,2,72.46,7.41
2.676000,0.7768,0.6422,0,2,72.46,7.41
2.678000,0.9560,0.8128,0,2,72.46,7.41
2.680000,1.0598,0.9841,0,2,72.46,7.41
2.682000,1.2302,1.1460,0,2,72.46,7.41
2.684000,1.3594,1.2875,0,2,72.46,7.41
2.686000,1.5089,1.3983,0,2,72.46,7.41
2.688000,1.5680,1.4692,1,2,72.46,7.41
2.690000,1.6064,1.4932,1,2,72.46,7.41
2.692000,1.5801,1.4669,1,2,72.46,7.41
2.694000,1.5182,1.3905,0,2,72.46,7.41
2.696000,1.4087,1.2686,0,2,72.46,7.41
2.698000,1.2044,1.1096,0,2,72.46,7.41
2.700000,1.0562,0.9250,0,2,72.46,7.41
2.702000,0.8253,0.7281,0,2,72.46,7.41
2.704000,0.6069,0.5328,0,2,72.46,7.41
2.706000,0.4028,0.3515,0,2,72.46,7.41
2.708000,0.2567,0.1942,0,2,72.46,7.41
2.710000,0.1632,0.0674,0,2,72.46,7.41
2.712000,0.1021,-0.0263,0,2,72.46,7.41
2.714000,0.0003,-0.0879,0,2,72.46,7.41
2.716000,-0.0177,-0.1212,0,2,72.46,7.41
2.718000,-0.0146,-0.1320,0,2,72.46,7.41
2.720000,0.0045,-0.1271,0,2,72.46,7.41
2.722000,-0.0118,-0.1129,0,2,72.46,7.41
2.724000,0.0198,-0.0950,0,2,72.46,7.41
2.726000,0.0574,-0.0774,0,2,72.46,7.41
2.728000,0.0047,-0.0625,0,2,72.46,7.41
2.730000,0.0244,-0.0514,0,2,72.46,7.41
2.732000,0.0555,-0.0438,0,2,72.46,7.41
2.734000,0.0935,-0.0388,0,2,72.46,7.41
2.736000,0.0490,-0.0353,0,2,72.46,7.41
2.738000,0.0428,-0.0322,0,2,72.46,7.41
2.740000,0.0579,-0.0286,0,2,72.46,7.41
2.742000,0.1077,-0.0240,0,2,72.46,7.41
2.744000,0.0850,-0.0184,0,2,72.46,7.41
2.746000,0.0915,-0.0118,0,2,72.46,7.41
2.748000,0.1136,-0.0045,0,2,72.46,7.41
2.750000,0.0782,0.0036,0,2,72.46,7.41
2.752000,0.1069,0.0121,0,2,72.46,7.41
2.754000,0.1776,0.0213,0,2,72.46,7.41
2.756000,0.0964,0.0312,0,2,72.46,7.41
2.758000,0.1295,0.0418,0,2,72.46,7.41
2.760000,0.1488,0.0531,0,2,72.46,7.41
2.762000,0.1848,0.0650,0,2,72.46,7.41
2.764000,0.1588,0.0773,0,2,72.46,7.41
2.766000,0.2242,0.0897,0,2,72.46,7.41
2.768000,0.1893,0.1018,0,2,72.46,7.41
2.770000,0.2143,0.1136,0,2,72.46,7.41
2.772000,0.2304,0.1247,0,2,72.46,7.41
2.774000,0.2143,0.1351,0,2,72.46,7.41
2.776000,0.2538,0.1447,0,2,72.46,7.41
2.778000,0.2428,0.1533,0,2,72.46,7.41
2.780000,0.2853,0.1611,0,2,72.46,7.41
2.782000,0.2955,0.1681,0,2,72.46,7.41
2.784000,0.2326,0.1747,0,2,72.46,7.41
2.786000,0.2967,0.1812,0,2,72.46,7.41
2.788000,0.2934,0.1880,0,2,72.46,7.41
2.790000,0.2931,0.1953,0,2,72.46,7.41
2.792000,0.2814,0.2032,0,2,72.46,7.41
2.794000,0.3069,0.2115,0,2,72.46,7.41
2.796000,0.3503,0.2202,0,2,72.46,7.41
2.798000,0.3665,0.2287,0,2,72.46,7.41
2.800000,0.2859,0.2366,0,2,72.46,7.41
2.802000,0.3370,0.2435,0,2,72.46,7.41
2.804000,0.3463,0.2487,0,2,72.46,7.41
2.806000,0.3721,0.2519,0,2,72.46,7.41
2.808000,0.3464,0.2529,0,2,72.46,7.41
2.810000,0.3761,0.2515,0,2,72.46,7.41
2.812000,0.3469,0.2481,0,2,72.46,7.41
2.814000,0.3447,0.2432,0,2,72.46,7.41
2.816000,0.3214,0.2373,0,2,72.46,7.41
2.818000,0.3340,0.2311,0,2,72.46,7.41
2.820000,0.3033,0.2250,0,2,72.46,7.41
2.822000,0.3251,0.2194,0,2,72.46,7.41
2.824000,0.3446,0.2143,0,2,72.46,7.41
2.826000,0.3077,0.2097,0,2,72.46,7.41
2.828000,0.2973,0.2052,0,2,72.46,7.41
2.830000,0.2929,0.2007,0,2,72.46,7.41
2.832000,0.3002,0.1958,0,2,72.46,7.41
2.834000,0.2964,0.1902,0,2,72.46,7.41
2.836000,0.2723,0.1837,0,2,72.46,7.41
2.838000,0.2838,0.1760,0,2,72.46,7.41
2.840000,0.2849,0.1670,0,2,72.46,7.41
2.842000,0.2489,0.1568,0,2,72.46,7.41
2.844000,0.2285,0.1455,0,2,72.46,7.41
2.846000,0.2413,0.1334,0,2,72.46,7.41
2.848000,0.2190,0.1208,0,2,72.46,7.41
2.850000,0.2259,0.1080,0,2,72.46,7.41
2.852000,0.1932,0.0955,0,2,72.46,7.41
2.854000,0.1739,0.0836,0,2,72.46,7.41
2.856000,0.1682,0.0726,0,2,72.46,7.41
2.858000,0.1767,0.0627,0,2,72.46,7.41
2.860000,0.1378,0.0541,0,2,72.46,7.41
2.862000,0.1579,0.0466,0,2,72.46,7.41
2.864000,0.1448,0.0399,0,2,72.46,7.41
2.866000,0.1431,0.0338,0,2,72.46,7.41
2.868000,0.0975,0.0277,0,2,72.46,7.41
2.870000,0.1224,0.0213,0,2,72.46,7.41
2.872000,0.1260,0.0139,0,2,72.46,7.41
2.874000,0.0945,0.0055,0,2,72.46,7.41
2.876000,0.1225,-0.0041,0,2,72.46,7.41
2.878000,0.1090,-0.0147,0,2,72.46,7.41
2.880000,0.0593,-0.0257,0,2,72.46,7.41
2.882000,0.0454,-0.0366,0,2,72.46,7.41
2.884000,0.0219,-0.0468,0,2,72.46,7.41
2.886000,0.0583,-0.0559,0,2,72.46,7.41
2.888000,0.0538,-0.0635,0,2,72.46,7.41
2.890000,0.0405,-0.0698,0,2,72.46,7.41
2.892000,0.0109,-0.0745,0,2,72.46,7.41
2.894000,0.0369,-0.0779,0,2,72.46,7.41
2.896000,0.0265,-0.0799,0,2,72.46,7.41
2.898000,0.0009,-0.0807,0,2,72.46,7.41
2.900000,0.0084,-0.0804,0,2,72.46,7.41
2.902000,0.0278,-0.0793,0,2,72.46,7.41
2.904000,0.0271,-0.0777,0,2,72.46,7.41
2.906000,0.0355,-0.0760,0,2,72.46,7.41
2.908000,0.0252,-0.0746,0,2,72.46,7.41
2.910000,0.0146,-0.0738,0,2,72.46,7.41
2.912000,0.0246,-0.0739,0,2,72.46,7.41
2.914000,0.0227,-0.0751,0,2,72.46,7.41
2.916000,0.0303,-0.0774,0,2,72.46,7.41
2.918000,0.0098,-0.0806,0,2,72.46,7.41
2.920000,0.0315,-0.0845,0,2,72.46,7.41
2.922000,0.0328,-0.0886,0,2,72.46,7.41
2.924000,-0.0136,-0.0925,0,2,72.46,7.41
2.926000,-0.0002,-0.0956,0,2,72.46,7.41
2.928000,-0.0183,-0.0978,0,2,72.46,7.41
2.930000,-0.0036,-0.0989,0,2,72.46,7.41
2.932000,0.0386,-0.0992,0,2,72.46,7.41
2.934000,-0.0090,-0.0990,0,2,72.46,7.41
2.936000,-0.0060,-0.0985,0,2,72.46,7.41
2.938000,-0.0044,-0.0982,0,2,72.46,7.41
2.940000,0.0029,-0.0981,0,2,72.46,7.41
2.942000,0.0207,-0.0983,0,2,72.46,7.41
2.944000,-0.0056,-0.0988,0,2,72.46,7.41
2.946000,0.0257,-0.0994,0,2,72.46,7.41
2.948000,-0.0136,-0.0997,0,2,72.46,7.41
2.950000,-0.0572,-0.0998,0,2,72.46,7.41
2.952000,0.0267,-0.0995,0,2,72.46,7.41
2.954000,0.0378,-0.0989,0,2,72.46,7.41
2.956000,-0.0250,-0.0983,0,2,72.46,7.41
2.958000,0.0245,-0.0977,0,2,72.46,7.41
2.960000,-0.0310,-0.0975,0,2,72.46,7.41
2.962000,0.0106,-0.0978,0,2,72.46,7.41
2.964000,0.0178,-0.0985,0,2,72.46,7.41
2.966000,0.0003,-0.0997,0,2,72.46,7.41
2.968000,-0.0184,-0.1013,0,2,72.46,7.41
2.970000,0.0213,-0.1031,0,2,72.46,7.41
2.972000,-0.0327,-0.1050,0,2,72.46,7.41
2.974000,0.0108,-0.1067,0,2,72.46,7.41
2.976000,0.0002,-0.1080,0,2,72.46,7.41
2.978000,-0.0208,-0.1087,0,2,72.46,7.41
2.980000,-0.0257,-0.1088,0,2,72.46,7.41
2.982000,0.0067,-0.1082,0,2,72.46,7.41
2.984000,-0.0381,-0.1072,0,2,72.46,7.41
2.986000,0.0283,-0.1059,0,2,72.46,7.41
2.988000,-0.0004,-0.1045,0,2,72.46,7.41
2.990000,0.0208,-0.1032,0,2,72.46,7.41
2.992000,-0.0099,-0.1022,0,2,72.46,7.41
2.994000,-0.0335,-0.1014,0,2,72.46,7.41
2.996000,-0.0170,-0.1010,0,2,72.46,7.41
2.998000,-0.0119,-0.1011,0,2,72.46,7.41
3.000000,-0.0062,-0.1017,0,2,72.46,7.41
3.002000,0.0588,-0.1029,0,2,72.46,7.41
3.004000,-0.0122,-0.1044,0,2,72.46,7.41
3.006000,0.0104,-0.1058,0,2,72.46,7.41
3.008000,-0.0041,-0.1065,0,2,72.46,7.41
3.010000,-0.0337,-0.1060,0,2,72.46,7.41
3.012000,-0.0214,-0.1041,0,2,72.46,7.41
3.014000,-0.0174,-0.1008,0,2,72.46,7.41
3.016000,-0.0216,-0.0968,0,2,72.46,7.41
3.018000,0.0338,-0.0930,0,2,72.46,7.41
3.020000,0.0240,-0.0904,0,2,72.46,7.41
3.022000,0.0367,-0.0895,0,2,72.46,7.41
3.024000,0.0224,-0.0905,0,2,72.46,7.41
3.026000,-0.0141,-0.0931,0,2,72.46,7.41
3.028000,0.0208,-0.0963,0,2,72.46,7.41
3.030000,-0.0172,-0.0992,0,2,72.46,7.41
3.032000,-0.0082,-0.1007,0,2,72.46,7.41
3.034000,-0.0294,-0.1001,0,2,72.46,7.41
3.036000,0.0149,-0.0973,0,2,72.46,7.41
3.038000,0.0208,-0.0926,0,2,72.46,7.41
3.040000,0.0183,-0.0867,0,2,72.46,7.41
3.042000,-0.0241,-0.0807,0,2,72.46,7.41
3.044000,0.0417,-0.0756,0,2,72.46,7.41
3.046000,0.0450,-0.0723,0,2,72.46,7.41
3.048000,0.0494,-0.0714,0,2,72.46,7.41
3.050000,0.0483,-0.0729,0,2,72.46,7.41
3.052000,0.0021,-0.0764,0,2,72.46,7.41
3.054000,0.0312,-0.0810,0,2,72.46,7.41
3.056000,-0.0262,-0.0859,0,2,72.46,7.41
3.058000,-0.0222,-0.0903,0,2,72.46,7.41
3.060000,0.0178,-0.0938,0,2,72.46,7.41
3.062000,0.0237,-0.0963,0,2,72.46,7.41
3.064000,0.0196,-0.0980,0,2,72.46,7.41
3.066000,0.0093,-0.0993,0,2,72.46,7.41
3.068000,-0.0243,-0.1003,0,2,72.46,7.41
3.070000,0.0088,-0.1014,0,2,72.46,7.41
3.072000,-0.0282,-0.1026,0,2,72.46,7.41
3.074000,0.0501,-0.1040,0,2,72.46,7.41
3.076000,-0.0153,-0.1054,0,2,72.46,7.41
3.078000,-0.0531,-0.1065,0,2,72.46,7.41
3.080000,-0.0059,-0.1072,0,2,72.46,7.41
3.082000,-0.0051,-0.1074,0,2,72.46,7.41
3.084000,0.0144,-0.1069,0,2,72.46,7.41
3.086000,0.0031,-0.1058,0,2,72.46,7.41
3.088000,-0.0092,-0.1042,0,2,72.46,7.41
3.090000,0.0030,-0.1020,0,2,72.46,7.41
3.092000,-0.0107,-0.0995,0,2,72.46,7.41
3.094000,-0.0113,-0.0966,0,2,72.46,7.41
3.096000,0.0109,-0.0936,0,2,72.46,7.41
3.098000,0.0161,-0.0908,0,2,72.46,7.41
3.100000,0.0073,-0.0884,0,2,72.46,7.41
3.102000,0.0097,-0.0867,0,2,72.46,7.41
3.104000,0.0457,-0.0858,0,2,72.46,7.41
3.106000,-0.0319,-0.0857,0,2,72.46,7.41
3.108000,0.0362,-0.0865,0,2,72.46,7.41
3.110000,0.0415,-0.0880,0,2,72.46,7.41
3.112000,-0.0287,-0.0901,0,2,72.46,7.41
3.114000,0.0146,-0.0927,0,2,72.46,7.41
3.116000,0.0115,-0.0955,0,2,72.46,7.41
3.118000,-0.0234,-0.0983,0,2,72.46,7.41
3.120000,0.0122,-0.1010,0,2,72.46,7.41
3.122000,-0.0040,-0.1034,0,2,72.46,7.41
3.124000,0.0102,-0.1053,0,2,72.46,7.41
3.126000,-0.0108,-0.1066,0,2,72.46,7.41
3.128000,-0.0025,-0.1071,0,2,72.46,7.41
3.130000,-0.0083,-0.1067,0,2,72.46,7.41
3.132000,-0.0046,-0.1054,0,2,72.46,7.41
3.134000,-0.0383,-0.1033,0,2,72.46,7.41
3.136000,0.0218,-0.1009,0,2,72.46,7.41
3.138000,0.0076,-0.0986,0,2,72.46,7.41
3.140000,-0.0268,-0.0966,0,2,72.46,7.41
3.142000,0.0385,-0.0955,0,2,72.46,7.41
3.144000,0.0136,-0.0953,0,2,72.46,7.41
3.146000,0.0033,-0.0961,0,2,72.46,7.41
3.148000,-0.0203,-0.0978,0,2,72.46,7.41
3.150000,0.0159,-0.1002,0,2,72.46,7.41
3.152000,-0.0061,-0.1029,0,2,72.46,7.41
3.154000,-0.0348,-0.1058,0,2,72.46,7.41
3.156000,0.0074,-0.1087,0,2,72.46,7.41
3.158000,0.0004,-0.1115,0,2,72.46,7.41
3.160000,-0.0123,-0.1141,0,2,72.46,7.41
3.162000,-0.0032,-0.1161,0,2,72.46,7.41
3.164000,-0.0517,-0.1174,0,2,72.46,7.41
3.166000,-0.0016,-0.1178,0,2,72.46,7.41
3.168000,-0.0254,-0.1170,0,2,72.46,7.41
3.170000,-0.0123,-0.1151,0,2,72.46,7.41
3.172000,0.0132,-0.1120,0,2,72.46,7.41
3.174000,-0.0275,-0.1080,0,2,72.46,7.41
3.176000,0.0113,-0.1031,0,2,72.46,7.41
3.178000,0.0076,-0.0977,0,2,72.46,7.41
3.180000,-0.0290,-0.0924,0,2,72.46,7.41
3.182000,-0.0114,-0.0875,0,2,72.46,7.41
3.184000,0.0503,-0.0838,0,2,72.46,7.41
3.186000,0.0458,-0.0817,0,2,72.46,7.41
3.188000,-0.0085,-0.0817,0,2,72.46,7.41
3.190000,0.0276,-0.0836,0,2,72.46,7.41
3.192000,0.0170,-0.0872,0,2,72.46,7.41
3.194000,0.0201,-0.0918,0,2,72.46,7.41
3.196000,0.0247,-0.0964,0,2,72.46,7.41
3.198000,-0.0436,-0.1000,0,2,72.46,7.41
3.200000,-0.0017,-0.1020,0,2,72.46,7.41
3.202000,-0.0171,-0.1018,0,2,72.46,7.41
3.204000,0.0195,-0.0995,0,2,72.46,7.41
3.206000,-0.0035,-0.0955,0,2,72.46,7.41
3.208000,0.0110,-0.0906,0,2,72.46,7.41
3.210000,0.0151,-0.0857,0,2,72.46,7.41
3.212000,0.0342,-0.0818,0,2,72.46,7.41
3.214000,0.0214,-0.0794,0,2,72.46,7.41
3.216000,0.0272,-0.0787,0,2,72.46,7.41
3.218000,0.0431,-0.0797,0,2,72.46,7.41
3.220000,0.0091,-0.0818,0,2,72.46,7.41
3.222000,-0.0068,-0.0846,0,2,72.46,7.41
3.224000,-0.0094,-0.0875,0,2,72.46,7.41
3.226000,0.0170,-0.0902,0,2,72.46,7.41
3.228000,-0.0019,-0.0928,0,2,72.46,7.41
3.230000,0.0240,-0.0953,0,2,72.46,7.41
3.232000,0.0224,-0.0980,0,2,72.46,7.41
3.234000,0.0005,-0.1011,0,2,72.46,7.41
3.236000,-0.0026,-0.1044,0,2,72.46,7.41
3.238000,-0.0083,-0.1076,0,2,72.46,7.41
3.240000,-0.0042,-0.1100,0,2,72.46,7.41
3.242000,-0.0289,-0.1113,0,2,72.46,7.41
3.244000,-0.0229,-0.1108,0,2,72.46,7.41
3.246000,0.0087,-0.1086,0,2,72.46,7.41
3.248000,-0.0071,-0.1048,0,2,72.46,7.41
3.250000,0.0096,-0.1001,0,2,72.46,7.41
3.252000,-0.0076,-0.0951,0,2,72.46,7.41
3.254000,-0.0126,-0.0910,0,2,72.46,7.41
3.256000,0.0256,-0.0883,0,2,72.46,7.41
3.258000,0.0472,-0.0878,0,2,72.46,7.41
3.260000,0.0062,-0.0894,0,2,72.46,7.41
3.262000,0.0300,-0.0927,0,2,72.46,7.41
3.264000,-0.0062,-0.0969,0,2,72.46,7.41
3.266000,-0.0047,-0.1009,0,2,72.46,7.41
3.268000,-0.0224,-0.1038,0,2,72.46,7.41
3.270000,-0.0295,-0.1051,0,2,72.46,7.41
3.272000,0.0111,-0.1048,0,2,72.46,7.41
3.274000,-0.0229,-0.1032,0,2,72.46,7.41
3.276000,0.0318,-0.1011,0,2,72.46,7.41
3.278000,0.0433,-0.0991,0,2,72.46,7.41
3.280000,-0.0136,-0.0979,0,2,72.46,7.41
3.282000,-0.0239,-0.0975,0,2,72.46,7.41
3.284000,0.0020,-0.0979,0,2,72.46,7.41
3.286000,0.0221,-0.0988,0,2,72.46,7.41
3.288000,-0.0084,-0.0997,0,2,72.46,7.41
3.290000,0.0351,-0.1000,0,2,72.46,7.41
3.292000,-0.0148,-0.0996,0,2,72.46,7.41
3.294000,-0.0390,-0.0981,0,2,72.46,7.41
3.296000,0.0444,-0.0959,0,2,72.46,7.41
3.298000,-0.0435,-0.0933,0,2,72.46,7.41
3.300000,0.0604,-0.0911,0,2,72.46,7.41
3.302000,0.0139,-0.0896,0,2,72.46,7.41
3.304000,-0.0125,-0.0895,0,2,72.46,7.41
3.306000,0.0278,-0.0908,0,2,72.46,7.41
3.308000,0.0117,-0.0933,0,2,72.46,7.41
3.310000,0.0230,-0.0966,0,2,72.46,7.41
3.312000,0.0065,-0.0999,0,2,72.46,7.41
3.314000,-0.0057,-0.1025,0,2,72.46,7.41
3.316000,-0.0303,-0.1038,0,2,72.46,7.41
3.318000,-0.0001,-0.1034,0,2,72.46,7.41
3.320000,-0.0067,-0.1014,0,2,72.46,7.41
3.322000,0.0169,-0.0981,0,2,72.46,7.41
3.324000,-0.0212,-0.0944,0,2,72.46,7.41
3.326000,0.0373,-0.0911,0,2,72.46,7.41
3.328000,0.0067,-0.0889,0,2,72.46,7.41
3.330000,0.0453,-0.0882,0,2,72.46,7.41
3.332000,0.0316,-0.0892,0,2,72.46,7.41
3.334000,0.0091,-0.0914,0,2,72.46,7.41
3.336000,-0.0265,-0.0943,0,2,72.46,7.41
3.338000,0.0072,-0.0972,0,2,72.46,7.41
3.340000,0.0051,-0.0995,0,2,72.46,7.41
3.342000,-0.0190,-0.1010,0,2,72.46,7.41
3.344000,-0.0339,-0.1018,0,2,72.46,7.41
3.346000,0.0419,-0.1021,0,2,72.46,7.41
3.348000,0.0264,-0.1024,0,2,72.46,7.41
3.350000,0.0089,-0.1030,0,2,72.46,7.41
3.352000,-0.0175,-0.1040,0,2,72.46,7.41
3.354000,0.0103,-0.1052,0,2,72.46,7.41
3.356000,-0.0012,-0.1061,0,2,72.46,7.41
3.358000,-0.0249,-0.1063,0,2,72.46,7.41
3.360000,-0.0092,-0.1052,0,2,72.46,7.41
3.362000,0.0125,-0.1028,0,2,72.46,7.41
3.364000,-0.0212,-0.0989,0,2,72.46,7.41
3.366000,-0.0071,-0.0939,0,2,72.46,7.41
3.368000,0.0444,-0.0880,0,2,72.46,7.41
3.370000,0.0509,-0.0818,0,2,72.46,7.41
3.372000,0.0303,-0.0754,0,2,72.46,7.41
3.374000,0.0403,-0.0688,0,2,72.46,7.41
3.376000,0.0337,-0.0617,0,2,72.46,7.41
3.378000,0.0290,-0.0539,0,2,72.46,7.41
3.380000,0.0392,-0.0452,0,2,72.46,7.41
3.382000,0.0588,-0.0355,0,2,72.46,7.41
3.384000,0.1088,-0.0249,0,2,72.46,7.41
3.386000,0.1005,-0.0139,0,2,72.46,7.41
3.388000,0.1085,-0.0028,0,2,72.46,7.41
3.390000,0.0854,0.0077,0,2,72.46,7.41
3.392000,0.1238,0.0171,0,2,72.46,7.41
3.394000,0.1271,0.0250,0,2,72.46,7.41
3.396000,0.1372,0.0311,0,2,72.46,7.41
3.398000,0.1635,0.0356,0,2,72.46,7.41
3.400000,0.1226,0.0386,0,2,72.46,7.41
3.402000,0.1683,0.0407,0,2,72.46,7.41
3.404000,0.1154,0.0426,0,2,72.46,7.41
3.406000,0.1659,0.0449,0,2,72.46,7.41
3.408000,0.1653,0.0483,0,2,72.46,7.41
3.410000,0.1261,0.0527,0,2,72.46,7.41
3.412000,0.1647,0.0581,0,2,72.46,7.41
3.414000,0.1585,0.0639,0,2,72.46,7.41
3.416000,0.1913,0.0693,0,2,72.46,7.41
3.418000,0.1842,0.0734,0,2,72.46,7.41
3.420000,0.1997,0.0756,0,2,72.46,7.41
3.422000,0.1502,0.0752,0,2,72.46,7.41
3.424000,0.1791,0.0722,0,2,72.46,7.41
3.426000,0.1736,0.0665,0,2,72.46,7.41
3.428000,0.1636,0.0586,0,2,72.46,7.41
3.430000,0.1676,0.0489,0,2,72.46,7.41
3.432000,0.1489,0.0382,0,2,72.46,7.41
3.434000,0.1281,0.0271,0,2,72.46,7.41
3.436000,0.0925,0.0164,0,2,72.46,7.41
3.438000,0.1246,0.0065,0,2,72.46,7.41
3.440000,0.1067,-0.0022,0,2,72.46,7.41
3.442000,0.1069,-0.0095,0,2,72.46,7.41
3.444000,0.0855,-0.0154,0,2,72.46,7.41
3.446000,0.0377,-0.0203,0,2,72.46,7.41
3.448000,0.1308,-0.0245,0,2,72.46,7.41
3.450000,0.0816,-0.0283,0,2,72.46,7.41
3.452000,0.0548,-0.0323,0,2,72.46,7.41
3.454000,0.0811,-0.0367,0,2,72.46,7.41
3.456000,0.0668,-0.0416,0,2,72.46,7.41
3.458000,0.0603,-0.0470,0,2,72.46,7.41
3.460000,0.0437,-0.0528,0,2,72.46,7.41
3.462000,0.0617,-0.0586,0,2,72.46,7.41
3.464000,0.0227,-0.0644,0,2,72.46,7.41
3.466000,0.0274,-0.0699,0,2,72.46,7.41
3.468000,0.0216,-0.0755,0,2,72.46,7.41
3.470000,0.0319,-0.0811,0,2,72.46,7.41
3.472000,0.0620,-0.0871,0,2,72.46,7.41
3.474000,0.0089,-0.0934,0,2,72.46,7.41
3.476000,-0.0069,-0.0999,0,2,72.46,7.41
3.478000,-0.0182,-0.1059,0,2,72.46,7.41
3.480000,-0.0231,-0.1103,0,2,72.46,7.41
3.482000,-0.0132,-0.1116,0,2,72.46,7.41
3.484000,0.0313,-0.1077,0,2,72.46,7.41
3.486000,0.0091,-0.0959,0,2,72.46,7.41
3.488000,0.0614,-0.0730,0,2,72.46,7.41
3.490000,0.0726,-0.0353,0,2,72.46,7.41
3.492000,0.1408,0.0207,0,2,72.46,7.41
3.494000,0.2184,0.0981,0,2,72.46,7.41
3.496000,0.2916,0.1989,0,2,72.46,7.41
3.498000,0.3878,0.3232,0,2,72.46,7.41
3.500000,0.5502,0.4687,0,2,72.46,7.41
3.502000,0.7366,0.6306,0,2,72.46,7.41
3.504000,0.9276,0.8017,0,2,72.46,7.41
3.506000,1.0822,0.9727,0,2,72.46,7.41
3.508000,1.2446,1.1329,0,2,72.46,7.41
3.510000,1.3709,1.2714,0,2,72.46,7.41
3.512000,1.4788,1.3781,0,2,72.46,7.41
3.514000,1.5685,1.4445,1,2,72.46,7.41
3.516000,1.5816,1.4646,1,2,72.46,7.41
3.518000,1.5421,1.4358,1,2,72.46,7.41
3.520000,1.4863,1.3592,0,2,72.46,7.41
3.522000,1.3374,1.2397,0,2,72.46,7.41
3.524000,1.2069,1.0852,0,2,72.46,7.41
3.526000,1.0287,0.9065,0,2,72.46,7.41
3.528000,0.8350,0.7159,0,2,72.46,7.41
3.530000,0.6387,0.5259,0,2,72.46,7.41
3.532000,0.4292,0.3483,0,2,72.46,7.41
3.534000,0.2754,0.1927,0,2,72.46,7.41
3.536000,0.1396,0.0656,0,2,72.46,7.41
3.538000,0.0789,-0.0297,0,2,72.46,7.41
3.540000,-0.0045,-0.0936,0,2,72.46,7.41
3.542000,-0.0072,-0.1292,0,2,72.46,7.41
3.544000,-0.0293,-0.1419,0,2,72.46,7.41
3.546000,0.0118,-0.1381,0,2,72.46,7.41
3.548000,0.0042,-0.1243,0,2,72.46,7.41
3.550000,0.0105,-0.1061,0,2,72.46,7.41
3.552000,0.0414,-0.0878,0,2,72.46,7.41
3.554000,0.0090,-0.0722,0,2,72.46,7.41
3.556000,0.0413,-0.0607,0,2,72.46,7.41
3.558000,0.0328,-0.0533,0,2,72.46,7.41
3.560000,0.0462,-0.0494,0,2,72.46,7.41
3.562000,0.0868,-0.0479,0,2,72.46,7.41
3.564000,0.0563,-0.0475,0,2,72.46,7.41
3.566000,0.0659,-0.0469,0,2,72.46,7.41
3.568000,0.0538,-0.0452,0,2,72.46,7.41
3.570000,0.1062,-0.0415,0,2,72.46,7.41
3.572000,0.0496,-0.0355,0,2,72.46,7.41
3.574000,0.0692,-0.0270,0,2,72.46,7.41
3.576000,0.1024,-0.0163,0,2,72.46,7.41
3.578000,0.0941,-0.0039,0,2,72.46,7.41
3.580000,0.1376,0.0094,0,2,72.46,7.41
3.582000,0.1265,0.0231,0,2,72.46,7.41
3.584000,0.1419,0.0363,0,2,72.46,7.41
3.586000,0.1703,0.0487,0,2,72.46,7.41
3.588000,0.1973,0.0599,0,2,72.46,7.41
3.590000,0.1414,0.0698,0,2,72.46,7.41
3.592000,0.1939,0.0788,0,2,72.46,7.41
3.594000,0.2030,0.0870,0,2,72.46,7.41
3.596000,0.2086,0.0949,0,2,72.46,7.41
3.598000,0.2025,0.1028,0,2,72.46,7.41
3.600000,0.2321,0.1112,0,2,72.46,7.41
3.602000,0.2414,0.1204,0,2,72.46,7.41
3.604000,0.2225,0.1304,0,2,72.46,7.41
3.606000,0.2609,0.1412,0,2,72.46,7.41
3.608000,0.2710,0.1525,0,2,72.46,7.41
3.610000,0.2292,0.1638,0,2,72.46,7.41
3.612000,0.3247,0.1746,0,2,72.46,7.41
3.614000,0.2931,0.1841,0,2,72.46,7.41
3.616000,0.2921,0.1921,0,2,72.46,7.41
3.618000,0.3200,0.1984,0,2,72.46,7.41
3.620000,0.3249,0.2029,0,2,72.46,7.41
3.622000,0.3362,0.2064,0,2,72.46,7.41
3.624000,0.3138,0.2092,0,2,72.46,7.41
3.626000,0.2981,0.2122,0,2,72.46,7.41
3.628000,0.3373,0.2157,0,2,72.46,7.41
3.630000,0.3134,0.2199,0,2,72.46,7.41
3.632000,0.3416,0.2245,0,2,72.46,7.41
3.634000,0.3360,0.2290,0,2,72.46,7.41
3.636000,0.3332,0.2324,0,2,72.46,7.41
3.638000,0.3490,0.2342,0,2,72.46,7.41
3.640000,0.3904,0.2337,0,2,72.46,7.41
3.642000,0.3699,0.2310,0,2,72.46,7.41
3.644000,0.3263,0.2263,0,2,72.46,7.41
3.646000,0.2945,0.2203,0,2,72.46,7.41
3.648000,0.3201,0.2137,0,2,72.46,7.41
3.650000,0.3256,0.2070,0,2,72.46,7.41
3.652000,0.2795,0.2005,0,2,72.46,7.41
3.654000,0.3268,0.1942,0,2,72.46,7.41
3.656000,0.3286,0.1881,0,2,72.46,7.41
3.658000,0.3037,0.1820,0,2,72.46,7.41
3.660000,0.2936,0.1756,0,2,72.46,7.41
3.662000,0.2860,0.1691,0,2,72.46,7.41
3.664000,0.2494,0.1622,0,2,72.46,7.41
3.666000,0.2567,0.1549,0,2,72.46,7.41
3.668000,0.2260,0.1470,0,2,72.46,7.41
3.670000,0.2777,0.1382,0,2,72.46,7.41
3.672000,0.2671,0.1281,0,2,72.46,7.41
3.674000,0.2636,0.1169,0,2,72.46,7.41
3.676000,0.2038,0.1047,0,2,72.46,7.41
3.678000,0.1915,0.0923,0,2,72.46,7.41
3.680000,0.1731,0.0802,0,2,72.46,7.41
3.682000,0.2186,0.0691,0,2,72.46,7.41
3.684000,0.1607,0.0594,0,2,72.46,7.41
3.686000,0.1386,0.0510,0,2,72.46,7.41
3.688000,0.1318,0.0436,0,2,72.46,7.41
3.690000,0.1856,0.0364,0,2,72.46,7.41
3.692000,0.1292,0.0288,0,2,72.46,7.41
3.694000,0.2028,0.0202,0,2,72.46,7.41
3.696000,0.1059,0.0103,0,2,72.46,7.41
3.698000,0.0841,-0.0007,0,2,72.46,7.41
3.700000,0.1001,-0.0123,0,2,72.46,7.41
3.702000,0.1047,-0.0240,0,2,72.46,7.41
3.704000,0.0606,-0.0349,0,2,72.46,7.41
3.706000,0.0980,-0.0444,0,2,72.46,7.41
3.708000,0.0474,-0.0522,0,2,72.46,7.41
3.710000,0.0639,-0.0581,0,2,72.46,7.41
3.712000,0.0450,-0.0622,0,2,72.46,7.41
3.714000,0.0386,-0.0647,0,2,72.46,7.41
3.716000,0.0357,-0.0662,0,2,72.46,7.41
3.718000,0.0870,-0.0672,0,2,72.46,7.41
3.720000,0.0218,-0.0682,0,2,72.46,7.41
3.722000,0.0828,-0.0696,0,2,72.46,7.41
3.724000,0.0335,-0.0715,0,2,72.46,7.41
3.726000,0.0576,-0.0739,0,2,72.46,7.41
3.728000,0.0129,-0.0766,0,2,72.46,7.41
3.730000,0.0078,-0.0794,0,2,72.46,7.41
3.732000,0.0692,-0.0822,0,2,72.46,7.41
3.734000,0.0266,-0.0852,0,2,72.46,7.41
3.736000,0.0112,-0.0883,0,2,72.46,7.41
3.738000,0.0207,-0.0918,0,2,72.46,7.41
3.740000,0.0373,-0.0959,0,2,72.46,7.41
3.742000,0.0240,-0.1005,0,2,72.46,7.41
3.744000,0.0277,-0.1054,0,2,72.46,7.41
3.746000,-0.0009,-0.1104,0,2,72.46,7.41
3.748000,-0.0138,-0.1150,0,2,72.46,7.41
3.750000,-0.0147,-0.1188,0,2,72.46,7.41
3.752000,0.0135,-0.1216,0,2,72.46,7.41
3.754000,-0.0066,-0.1230,0,2,72.46,7.41
3.756000,-0.0340,-0.1232,0,2,72.46,7.41
3.758000,0.0061,-0.1223,0,2,72.46,7.41
3.760000,0.0046,-0.1206,0,2,72.46,7.41
3.762000,0.0099,-0.1184,0,2,72.46,7.41
3.764000,0.0038,-0.1161,0,2,72.46,7.41
3.766000,0.0096,-0.1137,0,2,72.46,7.41
3.768000,0.0038,-0.1115,0,2,72.46,7.41
3.770000,0.0024,-0.1095,0,2,72.46,7.41
3.772000,-0.0297,-0.1078,0,2,72.46,7.41
3.774000,0.0256,-0.1067,0,2,72.46,7.41
3.776000,0.0171,-0.1063,0,2,72.46,7.41
3.778000,0.0317,-0.1066,0,2,72.46,7.41
3.780000,0.0100,-0.1076,0,2,72.46,7.41
3.782000,0.0322,-0.1091,0,2,72.46,7.41
3.784000,-0.0244,-0.1107,0,2,72.46,7.41
3.786000,0.0074,-0.1122,0,2,72.46,7.41
3.788000,-0.0141,-0.1132,0,2,72.46,7.41
3.790000,0.0095,-0.1137,0,2,72.46,7.41
3.792000,0.0449,-0.1137,0,2,72.46,7.41
3.794000,-0.0104,-0.1134,0,2,72.46,7.41
3.796000,-0.0332,-0.1133,0,2,72.46,7.41
3.798000,0.0155,-0.1136,0,2,72.46,7.41
3.800000,0.0116,-0.1147,0,2,72.46,7.41
3.802000,0.0216,-0.1168,0,2,72.46,7.41
3.804000,0.0124,-0.1199,0,2,72.46,7.41
3.806000,-0.0235,-0.1238,0,2,72.46,7.41
3.808000,-0.0097,-0.1282,0,2,72.46,7.41
3.810000,-0.0224,-0.1324,0,2,72.46,7.41
3.812000,-0.0191,-0.1361,0,2,72.46,7.41
3.814000,0.0063,-0.1385,0,2,72.46,7.41
3.816000,-0.0541,-0.1395,0,2,72.46,7.41
3.818000,-0.0105,-0.1388,0,2,72.46,7.41
3.820000,0.0025,-0.1363,0,2,72.46,7.41
3.822000,-0.0145,-0.1324,0,2,72.46,7.41
3.824000,-0.0267,-0.1274,0,2,72.46,7.41
3.826000,0.0033,-0.1219,0,2,72.46,7.41
3.828000,-0.0046,-0.1168,0,2,72.46,7.41
3.830000,-0.0121,-0.1128,0,2,72.46,7.41
3.832000,0.0414,-0.1105,0,2,72.46,7.41
3.834000,0.0405,-0.1102,0,2,72.46,7.41
3.836000,-0.0095,-0.1118,0,2,72.46,7.41
3.838000,0.0038,-0.1149,0,2,72.46,7.41
3.840000,-0.0267,-0.1190,0,2,72.46,7.41
3.842000,-0.0000,-0.1234,0,2,72.46,7.41
3.844000,-0.0058,-0.1275,0,2,72.46,7.41
3.846000,-0.0024,-0.1309,0,2,72.46,7.41
3.848000,0.0089,-0.1335,0,2,72.46,7.41
3.850000,-0.0391,-0.1350,0,2,72.46,7.41
3.852000,-0.0015,-0.1356,0,2,72.46,7.41
3.854000,-0.0303,-0.1354,0,2,72.46,7.41
3.856000,-0.0209,-0.1345,0,2,72.46,7.41
3.858000,-0.0061,-0.1331,0,2,72.46,7.41
3.860000,0.0020,-0.1313,0,2,72.46,7.41
3.862000,-0.0068,-0.1294,0,2,72.46,7.41
3.864000,0.0001,-0.1274,0,2,72.46,7.41
3.866000,-0.0017,-0.1253,0,2,72.46,7.41
3.868000,-0.0093,-0.1233,0,2,72.46,7.41
3.870000,-0.0364,-0.1214,0,2,72.46,7.41
3.872000,0.0175,-0.1198,0,2,72.46,7.41
3.874000,0.0158,-0.1187,0,2,72.46,7.41
3.876000,0.0130,-0.1184,0,2,72.46,7.41
3.878000,0.0134,-0.1187,0,2,72.46,7.41
3.880000,-0.0337,-0.1197,0,2,72.46,7.41
3.882000,-0.0063,-0.1211,0,2,72.46,7.41
3.884000,0.0247,-0.1227,0,2,72.46,7.41
3.886000,0.0122,-0.1240,0,2,72.46,7.41
3.888000,-0.0038,-0.1250,0,2,72.46,7.41
3.890000,-0.0057,-0.1252,0,2,72.46,7.41
3.892000,-0.0413,-0.1246,0,2,72.46,7.41
3.894000,0.0039,-0.1231,0,2,72.46,7.41
3.896000,0.0095,-0.1210,0,2,72.46,7.41
3.898000,0.0049,-0.1184,0,2,72.46,7.41
3.900000,0.0276,-0.1156,0,2,72.46,7.41
3.902000,0.0293,-0.1126,0,2,72.46,7.41
3.904000,-0.0349,-0.1097,0,2,72.46,7.41
3.906000,0.0233,-0.1070,0,2,72.46,7.41
3.908000,0.0172,-0.1045,0,2,72.46,7.41
3.910000,0.0507,-0.1024,0,2,72.46,7.41
3.912000,0.0109,-0.1008,0,2,72.46,7.41
3.914000,0.0002,-0.1000,0,2,72.46,7.41
3.916000,0.0262,-0.1001,0,2,72.46,7.41
3.918000,0.0126,-0.1014,0,2,72.46,7.41
3.920000,0.0260,-0.1038,0,2,72.46,7.41
3.922000,0.0226,-0.1074,0,2,72.46,7.41
3.924000,0.0147,-0.1121,0,2,72.46,7.41
3.926000,0.0152,-0.1174,0,2,72.46,7.41
3.928000,0.0118,-0.1228,0,2,72.46,7.41
3.930000,-0.0235,-0.1277,0,2,72.46,7.41
3.932000,-0.0228,-0.1316,0,2,72.46,7.41
3.934000,0.0138,-0.1338,0,2,72.46,7.41
3.936000,-0.0259,-0.1342,0,2,72.46,7.41
3.938000,-0.0235,-0.1328,0,2,72.46,7.41
3.940000,-0.0207,-0.1300,0,2,72.46,7.41
3.942000,0.0146,-0.1264,0,2,72.46,7.41
3.944000,0.0013,-0.1227,0,2,72.46,7.41
3.946000,0.0286,-0.1195,0,2,72.46,7.41
3.948000,0.0089,-0.1174,0,2,72.46,7.41
3.950000,-0.0011,-0.1166,0,2,72.46,7.41
3.952000,-0.0061,-0.1169,0,2,72.46,7.41
3.954000,0.0176,-0.1182,0,2,72.46,7.41
3.956000,0.0015,-0.1200,0,2,72.46,7.41
3.958000,0.0077,-0.1219,0,2,72.46,7.41
3.960000,-0.0534,-0.1236,0,2,72.46,7.41
3.962000,0.0288,-0.1251,0,2,72.46,7.41
3.964000,-0.0172,-0.1264,0,2,72.46,7.41
3.966000,0.0283,-0.1275,0,2,72.46,7.41
3.968000,0.0079,-0.1286,0,2,72.46,7.41
3.970000,0.0044,-0.1296,0,2,72.46,7.41
3.972000,-0.0351,-0.1302,0,2,72.46,7.41
3.974000,0.0095,-0.1304,0,2,72.46,7.41
3.976000,-0.0223,-0.1298,0,2,72.46,7.41
3.978000,-0.0151,-0.1285,0,2,72.46,7.41
3.980000,-0.0231,-0.1267,0,2,72.46,7.41
3.982000,-0.0105,-0.1249,0,2,72.46,7.41
3.984000,0.0289,-0.1236,0,2,72.46,7.41
3.986000,0.0331,-0.1231,0,2,72.46,7.41
3.988000,0.0301,-0.1236,0,2,72.46,7.41
3.990000,-0.0274,-0.1250,0,2,72.46,7.41
3.992000,-0.0077,-0.1268,0,2,72.46,7.41
3.994000,-0.0303,-0.1285,0,2,72.46,7.41
3.996000,-0.0116,-0.1296,0,2,72.46,7.41
3.998000,-0.0049,-0.1301,0,2,72.46,7.41
4.000000,-0.0216,-0.1301,0,2,72.46,7.41
4.002000,0.0007,-0.1298,0,2,72.46,7.41
4.004000,0.0390,-0.1296,0,2,72.46,7.41
4.006000,-0.0011,-0.1298,0,2,72.46,7.41
4.008000,-0.0138,-0.1306,0,2,72.46,7.41
4.010000,-0.0059,-0.1317,0,2,72.46,7.41
4.012000,-0.0210,-0.1328,0,2,72.46,7.41
4.014000,-0.0294,-0.1336,0,2,72.46,7.41
4.016000,0.0011,-0.1338,0,2,72.46,7.41
4.018000,0.0027,-0.1331,0,2,72.46,7.41
4.020000,-0.0406,-0.1316,0,2,72.46,7.41
4.022000,0.0316,-0.1294,0,2,72.46,7.41
4.024000,-0.0050,-0.1266,0,2,72.46,7.41
4.026000,0.0045,-0.1234,0,2,72.46,7.41
4.028000,0.0287,-0.1202,0,2,72.46,7.41
4.030000,-0.0225,-0.1172,0,2,72.46,7.41
4.032000,-0.0228,-0.1148,0,2,72.46,7.41
4.034000,0.0324,-0.1131,0,2,72.46,7.41
4.036000,0.0192,-0.1125,0,2,72.46,7.41
4.038000,0.0269,-0.1128,0,2,72.46,7.41
4.040000,0.0126,-0.1140,0,2,72.46,7.41
4.042000,0.0043,-0.1159,0,2,72.46,7.41
4.044000,-0.0101,-0.1179,0,2,72.46,7.41
4.046000,0.0368,-0.1198,0,2,72.46,7.41
4.048000,-0.0184,-0.1213,0,2,72.46,7.41
4.050000,-0.0041,-0.1221,0,2,72.46,7.41
4.052000,0.0094,-0.1226,0,2,72.46,7.41
4.054000,-0.0047,-0.1227,0,2,72.46,7.41
4.056000,-0.0130,-0.1229,0,2,72.46,7.41
4.058000,0.0142,-0.1233,0,2,72.46,7.41
4.060000,0.0304,-0.1241,0,2,72.46,7.41
4.062000,-0.0104,-0.1253,0,2,72.46,7.41
4.064000,0.0068,-0.1266,0,2,72.46,7.41
4.066000,-0.0069,-0.1278,0,2,72.46,7.41
4.068000,-0.0254,-0.1286,0,2,72.46,7.41
4.070000,-0.0041,-0.1289,0,2,72.46,7.41
4.072000,-0.0056,-0.1288,0,2,72.46,7.41
4.074000,0.0100,-0.1283,0,2,72.46,7.41
4.076000,-0.0247,-0.1278,0,2,72.46,7.41
4.078000,0.0190,-0.1274,0,2,72.46,7.41
4.080000,0.0189,-0.1273,0,2,72.46,7.41
4.082000,-0.0314,-0.1276,0,2,72.46,7.41
4.084000,-0.0064,-0.1282,0,2,72.46,7.41
4.086000,0.0232,-0.1291,0,2,72.46,7.41
4.088000,-0.0141,-0.1300,0,2,72.46,7.41
4.090000,-0.0296,-0.1309,0,2,72.46,7.41
4.092000,0.0065,-0.1319,0,2,72.46,7.41
4.094000,0.0037,-0.1328,0,2,72.46,7.41
4.096000,-0.0368,-0.1339,0,2,72.46,7.41
4.098000,-0.0053,-0.1350,0,2,72.46,7.41
4.100000,0.0092,-0.1362,0,2,72.46,7.41
4.102000,-0.0200,-0.1373,0,2,72.46,7.41
4.104000,-0.0065,-0.1383,0,2,72.46,7.41
4.106000,-0.0062,-0.1387,0,2,72.46,7.41
4.108000,-0.0280,-0.1385,0,2,72.46,7.41
4.110000,-0.0139,-0.1375,0,2,72.46,7.41
4.112000,-0.0065,-0.1356,0,2,72.46,7.41
4.114000,-0.0159,-0.1329,0,2,72.46,7.41
4.116000,-0.0044,-0.1296,0,2,72.46,7.41
4.118000,-0.0006,-0.1260,0,2,72.46,7.41
4.120000,-0.0130,-0.1225,0,2,72.46,7.41
4.122000,0.0191,-0.1194,0,2,72.46,7.41
4.124000,0.0197,-0.1170,0,2,72.46,7.41
4.126000,0.0130,-0.1155,0,2,72.46,7.41
4.128000,0.0257,-0.1148,0,2,72.46,7.41
4.130000,-0.0071,-0.1149,0,2,72.46,7.41
4.132000,-0.0066,-0.1156,0,2,72.46,7.41
4.134000,-0.0015,-0.1168,0,2,72.46,7.41
4.136000,0.0083,-0.1184,0,2,72.46,7.41
4.138000,0.0013,-0.1204,0,2,72.46,7.41
4.140000,0.0147,-0.1228,0,2,72.46,7.41
4.142000,-0.0020,-0.1255,0,2,72.46,7.41
4.144000,0.0296,-0.1282,0,2,72.46,7.41
4.146000,-0.0255,-0.1305,0,2,72.46,7.41
4.148000,-0.0082,-0.1320,0,2,72.46,7.41
4.150000,-0.0034,-0.1321,0,2,72.46,7.41
4.152000,-0.0405,-0.1308,0,2,72.46,7.41
4.154000,0.0123,-0.1280,0,2,72.46,7.41
4.156000,-0.0104,-0.1241,0,2,72.46,7.41
4.158000,0.0069,-0.1195,0,2,72.46,7.41
4.160000,0.0095,-0.1149,0,2,72.46,7.41
4.162000,0.0411,-0.1109,0,2,72.46,7.41
4.164000,0.0107,-0.1079,0,2,72.46,7.41
4.166000,-0.0007,-0.1064,0,2,72.46,7.41
4.168000,0.0288,-0.1062,0,2,72.46,7.41
4.170000,0.0151,-0.1073,0,2,72.46,7.41
4.172000,0.0162,-0.1092,0,2,72.46,7.41
4.174000,0.0132,-0.1115,0,2,72.46,7.41
4.176000,0.0018,-0.1137,0,2,72.46,7.41
4.178000,0.0121,-0.1151,0,2,72.46,7.41
4.180000,-0.0010,-0.1155,0,2,72.46,7.41
4.182000,0.0153,-0.1144,0,2,72.46,7.41
4.184000,0.0119,-0.1117,0,2,72.46,7.41
4.186000,0.0192,-0.1076,0,2,72.46,7.41
4.188000,0.0205,-0.1023,0,2,72.46,7.41
4.190000,0.0145,-0.0960,0,2,72.46,7.41
4.192000,0.0545,-0.0890,0,2,72.46,7.41
4.194000,0.0401,-0.0817,0,2,72.46,7.41
4.196000,0.0439,-0.0743,0,2,72.46,7.41
4.198000,0.0562,-0.0670,0,2,72.46,7.41
4.200000,0.0657,-0.0600,0,2,72.46,7.41
4.202000,0.0373,-0.0534,0,2,72.46,7.41
4.204000,0.0776,-0.0473,0,2,72.46,7.41
4.206000,0.1105,-0.0418,0,2,72.46,7.41
4.208000,0.0740,-0.0365,0,2,72.46,7.41
4.210000,0.1290,-0.0312,0,2,72.46,7.41
4.212000,0.1092,-0.0253,0,2,72.46,7.41
4.214000,0.0801,-0.0181,0,2,72.46,7.41
4.216000,0.0773,-0.0094,0,2,72.46,7.41
4.218000,0.1109,0.0009,0,2,72.46,7.41
4.220000,0.1335,0.0124,0,2,72.46,7.41
4.222000,0.1648,0.0242,0,2,72.46,7.41
4.224000,0.1646,0.0353,0,2,72.46,7.41
4.226000,0.1569,0.0447,0,2,72.46,7.41
4.228000,0.2024,0.0518,0,2,72.46,7.41
4.230000,0.2002,0.0562,0,2,72.46,7.41
4.232000,0.1605,0.0581,0,2,72.46,7.41
4.234000,0.1480,0.0581,0,2,72.46,7.41
4.236000,0.1776,0.0569,0,2,72.46,7.41
4.238000,0.1832,0.0552,0,2,72.46,7.41
4.240000,0.1995,0.0538,0,2,72.46,7.41
4.242000,0.1725,0.0528,0,2,72.46,7.41
4.244000,0.1572,0.0524,0,2,72.46,7.41
4.246000,0.1444,0.0521,0,2,72.46,7.41
4.248000,0.1658,0.0514,0,2,72.46,7.41
4.250000,0.2163,0.0494,0,2,72.46,7.41
4.252000,0.1628,0.0454,0,2,72.46,7.41
4.254000,0.1389,0.0389,0,2,72.46,7.41
4.256000,0.1603,0.0298,0,2,72.46,7.41
4.258000,0.1541,0.0184,0,2,72.46,7.41
4.260000,0.1261,0.0056,0,2,72.46,7.41
4.262000,0.1285,-0.0077,0,2,72.46,7.41
4.264000,0.0885,-0.0205,0,2,72.46,7.41
4.266000,0.0745,-0.0317,0,2,72.46,7.41
4.268000,0.0325,-0.0411,0,2,72.46,7.41
4.270000,0.0816,-0.0485,0,2,72.46,7.41
4.272000,0.0516,-0.0545,0,2,72.46,7.41
4.274000,0.1108,-0.0598,0,2,72.46,7.41
4.276000,0.0691,-0.0651,0,2,72.46,7.41
4.278000,0.0297,-0.0705,0,2,72.46,7.41
4.280000,0.0635,-0.0763,0,2,72.46,7.41
4.282000,0.0472,-0.0819,0,2,72.46,7.41
4.284000,0.0038,-0.0870,0,2,72.46,7.41
4.286000,-0.0020,-0.0911,0,2,72.46,7.41
4.288000,0.0018,-0.0940,0,2,72.46,7.41
4.290000,0.0551,-0.0960,0,2,72.46,7.41
4.292000,0.0497,-0.0974,0,2,72.46,7.41
4.294000,0.0016,-0.0986,0,2,72.46,7.41
4.296000,0.0230,-0.1001,0,2,72.46,7.41
4.298000,0.0302,-0.1021,0,2,72.46,7.41
4.300000,-0.0120,-0.1045,0,2,72.46,7.41
4.302000,-0.0023,-0.1068,0,2,72.46,7.41
4.304000,0.0022,-0.1082,0,2,72.46,7.41
4.306000,0.0250,-0.1073,0,2,72.46,7.41
4.308000,0.0302,-0.1021,0,2,72.46,7.41
4.310000,-0.0023,-0.0899,0,2,72.46,7.41
4.312000,0.0911,-0.0673,0,2,72.46,7.41
4.314000,0.1029,-0.0308,0,2,72.46,7.41
4.316000,0.0915,0.0235,0,2,72.46,7.41
4.318000,0.2600,0.0989,0,2,72.46,7.41
4.320000,0.3310,0.1977,0,2,72.46,7.41
4.322000,0.4237,0.3203,0,2,72.46,7.41
4.324000,0.5307,0.4650,0,2,72.46,7.41
4.326000,0.7272,0.6274,0,2,72.46,7.41
4.328000,0.8945,0.8005,0,2,72.46,7.41
4.330000,1.1128,0.9747,0,2,72.46,7.41
4.332000,1.2652,1.1390,0,2,72.46,7.41
4.334000,1.3865,1.2819,0,2,72.46,7.41
4.336000,1.5042,1.3923,0,2,72.46,7.41
4.338000,1.6018,1.4610,1,2,72.46,7.41
4.340000,1.5902,1.4818,1,2,72.46,7.41
4.342000,1.5607,1.4517,1,2,72.46,7.41
4.344000,1.5293,1.3721,0,2,72.46,7.41
4.346000,1.3576,1.2481,0,2,72.46,7.41
4.348000,1.2256,1.0886,0,2,72.46,7.41
4.350000,1.0119,0.9051,0,2,72.46,7.41
4.352000,0.8276,0.7105,0,2,72.46,7.41
4.354000,0.6122,0.5179,0,2,72.46,7.41
4.356000,0.4602,0.3393,0,2,72.46,7.41
4.358000,0.2176,0.1838,0,2,72.46,7.41
4.360000,0.1633,0.0577,0,2,72.46,7.41
4.362000,0.0787,-0.0365,0,2,72.46,7.41
4.364000,0.0264,-0.0998,0,2,72.46,7.41
4.366000,-0.0155,-0.1356,0,2,72.46,7.41
4.368000,-0.0365,-0.1495,0,2,72.46,7.41
4.370000,0.0201,-0.1475,0,2,72.46,7.41
4.372000,-0.0445,-0.1356,0,2,72.46,7.41
4.374000,-0.0261,-0.1190,0,2,72.46,7.41
4.376000,0.0274,-0.1014,0,2,72.46,7.41
4.378000,0.0454,-0.0853,0,2,72.46,7.41
4.380000,0.0501,-0.0715,0,2,72.46,7.41
4.382000,0.0374,-0.0600,0,2,72.46,7.41
4.384000,0.0307,-0.0502,0,2,72.46,7.41
4.386000,0.0514,-0.0412,0,2,72.46,7.41
4.388000,0.0564,-0.0324,0,2,72.46,7.41
4.390000,0.0996,-0.0237,0,2,72.46,7.41
4.392000,0.1049,-0.0150,0,2,72.46,7.41
4.394000,0.1221,-0.0068,0,2,72.46,7.41
4.396000,0.1213,0.0007,0,2,72.46,7.41
4.398000,0.1179,0.0074,0,2,72.46,7.41
4.400000,0.1044,0.0133,0,2,72.46,7.41
4.402000,0.1088,0.0189,0,2,72.46,7.41
4.404000,0.1665,0.0244,0,2,72.46,7.41
4.406000,0.1236,0.0305,0,2,72.46,7.41
4.408000,0.1459,0.0376,0,2,72.46,7.41
4.410000,0.1471,0.0458,0,2,72.46,7.41
4.412000,0.1565,0.0553,0,2,72.46,7.41
4.414000,0.1724,0.0659,0,2,72.46,7.41
4.416000,0.1922,0.0773,0,2,72.46,7.41
4.418000,0.1763,0.0891,0,2,72.46,7.41
4.420000,0.2275,0.1009,0,2,72.46,7.41
4.422000,0.2263,0.1124,0,2,72.46,7.41
4.424000,0.2396,0.1234,0,2,72.46,7.41
4.426000,0.2225,0.1338,0,2,72.46,7.41
4.428000,0.2410,0.1438,0,2,72.46,7.41
4.430000,0.2568,0.1533,0,2,72.46,7.41
4.432000,0.2648,0.1626,0,2,72.46,7.41
4.434000,0.2712,0.1715,0,2,72.46,7.41
4.436000,0.3267,0.1801,0,2,72.46,7.41
4.438000,0.2550,0.1885,0,2,72.46,7.41
4.440000,0.2980,0.1964,0,2,72.46,7.41
4.442000,0.3127,0.2038,0,2,72.46,7.41
4.444000,0.3217,0.2105,0,2,72.46,7.41
4.446000,0.3108,0.2165,0,2,72.46,7.41
4.448000,0.3268,0.2216,0,2,72.46,7.41
4.450000,0.3206,0.2256,0,2,72.46,7.41
4.452000,0.3700,0.2286,0,2,72.46,7.41
4.454000,0.3114,0.2307,0,2,72.46,7.41
4.456000,0.3155,0.2319,0,2,72.46,7.41
4.458000,0.3330,0.2323,0,2,72.46,7.41
4.460000,0.3167,0.2318,0,2,72.46,7.41
4.462000,0.3505,0.2305,0,2,72.46,7.41
4.464000,0.3337,0.2281,0,2,72.46,7.41
4.466000,0.3381,0.2248,0,2,72.46,7.41
4.468000,0.3189,0.2206,0,2,72.46,7.41
4.470000,0.3058,0.2160,0,2,72.46,7.41
4.472000,0.3127,0.2114,0,2,72.46,7.41
4.474000,0.3173,0.2071,0,2,72.46,7.41
4.476000,0.2916,0.2036,0,2,72.46,7.41
4.478000,0.2812,0.2009,0,2,72.46,7.41
4.480000,0.2982,0.1987,0,2,72.46,7.41
4.482000,0.2920,0.1967,0,2,72.46,7.41
4.484000,0.3044,0.1941,0,2,72.46,7.41
4.486000,0.2789,0.1902,0,2,72.46,7.41
4.488000,0.3075,0.1843,0,2,72.46,7.41
4.490000,0.2610,0.1761,0,2,72.46,7.41
4.492000,0.2719,0.1656,0,2,72.46,7.41
4.494000,0.2190,0.1532,0,2,72.46,7.41
4.496000,0.2579,0.1395,0,2,72.46,7.41
4.498000,0.2460,0.1252,0,2,72.46,7.41
4.500000,0.1801,0.1114,0,2,72.46,7.41
4.502000,0.1636,0.0985,0,2,72.46,7.41
4.504000,0.1890,0.0870,0,2,72.46,7.41
4.506000,0.1749,0.0771,0,2,72.46,7.41
4.508000,0.1810,0.0686,0,2,72.46,7.41
4.510000,0.1840,0.0610,0,2,72.46,7.41
4.512000,0.1182,0.0541,0,2,72.46,7.41
4.514000,0.1344,0.0475,0,2,72.46,7.41
4.516000,0.1044,0.0407,0,2,72.46,7.41
4.518000,0.1151,0.0336,0,2,72.46,7.41
4.520000,0.1715,0.0259,0,2,72.46,7.41
4.522000,0.1105,0.0177,0,2,72.46,7.41
4.524000,0.1124,0.0092,0,2,72.46,7.41
4.526000,0.0894,0.0008,0,2,72.46,7.41
4.528000,0.0598,-0.0069,0,2,72.46,7.41
4.530000,0.0859,-0.0135,0,2,72.46,7.41
4.532000,0.0494,-0.0189,0,2,72.46,7.41
4.534000,0.0621,-0.0233,0,2,72.46,7.41
4.536000,0.0259,-0.0271,0,2,72.46,7.41
4.538000,0.1032,-0.0310,0,2,72.46,7.41
4.540000,0.0649,-0.0354,0,2,72.46,7.41
4.542000,0.0661,-0.0406,0,2,72.46,7.41
4.544000,0.0475,-0.0465,0,2,72.46,7.41
4.546000,0.0369,-0.0528,0,2,72.46,7.41
4.548000,0.0114,-0.0587,0,2,72.46,7.41
4.550000,0.0071,-0.0639,0,2,72.46,7.41
4.552000,-0.0023,-0.0680,0,2,72.46,7.41
4.554000,0.0132,-0.0709,0,2,72.46,7.41
4.556000,-0.0114,-0.0730,0,2,72.46,7.41
4.558000,0.0714,-0.0747,0,2,72.46,7.41
4.560000,0.0006,-0.0763,0,2,72.46,7.41
4.562000,0.0323,-0.0780,0,2,72.46,7.41
4.564000,0.0244,-0.0797,0,2,72.46,7.41
4.566000,-0.0447,-0.0810,0,2,72.46,7.41
4.568000,-0.0132,-0.0815,0,2,72.46,7.41
4.570000,0.0065,-0.0809,0,2,72.46,7.41
4.572000,0.0183,-0.0791,0,2,72.46,7.41
4.574000,-0.0131,-0.0764,0,2,72.46,7.41
4.576000,0.0268,-0.0731,0,2,72.46,7.41
4.578000,0.0177,-0.0696,0,2,72.46,7.41
4.580000,-0.0173,-0.0666,0,2,72.46,7.41
4.582000,0.0385,-0.0644,0,2,72.46,7.41
4.584000,0.0378,-0.0636,0,2,72.46,7.41
4.586000,0.0100,-0.0641,0,2,72.46,7.41
4.588000,0.0206,-0.0660,0,2,72.46,7.41
4.590000,0.0069,-0.0690,0,2,72.46,7.41
4.592000,-0.0352,-0.0728,0,2,72.46,7.41
4.594000,0.0120,-0.0768,0,2,72.46,7.41
4.596000,0.0203,-0.0807,0,2,72.46,7.41
4.598000,0.0040,-0.0840,0,2,72.46,7.41
4.600000,-0.0153,-0.0864,0,2,72.46,7.41
4.602000,-0.0305,-0.0876,0,2,72.46,7.41
4.604000,-0.0063,-0.0875,0,2,72.46,7.41
4.606000,0.0178,-0.0862,0,2,72.46,7.41
4.608000,-0.0140,-0.0839,0,2,72.46,7.41
4.610000,-0.0255,-0.0809,0,2,72.46,7.41
4.612000,-0.0205,-0.0777,0,2,72.46,7.41
4.614000,0.0130,-0.0746,0,2,72.46,7.41
4.616000,0.0146,-0.0721,0,2,72.46,7.41
4.618000,0.0154,-0.0703,0,2,72.46,7.41
4.620000,0.0245,-0.0692,0,2,72.46,7.41
4.622000,-0.0316,-0.0686,0,2,72.46,7.41
4.624000,0.0075,-0.0683,0,2,72.46,7.41
4.626000,-0.0132,-0.0680,0,2,72.46,7.41
4.628000,0.0401,-0.0677,0,2,72.46,7.41
4.630000,0.0127,-0.0671,0,2,72.46,7.41
4.632000,-0.0376,-0.0665,0,2,72.46,7.41
4.634000,0.0035,-0.0659,0,2,72.46,7.41
4.636000,0.0135,-0.0655,0,2,72.46,7.41
4.638000,0.0302,-0.0653,0,2,72.46,7.41
4.640000,0.0109,-0.0654,0,2,72.46,7.41
4.642000,-0.0164,-0.0659,0,2,72.46,7.41
4.644000,-0.0181,-0.0666,0,2,72.46,7.41
4.646000,0.0281,-0.0675,0,2,72.46,7.41
4.648000,-0.0138,-0.0685,0,2,72.46,7.41
4.650000,0.0298,-0.0696,0,2,72.46,7.41
4.652000,-0.0263,-0.0706,0,2,72.46,7.41
4.654000,-0.0064,-0.0714,0,2,72.46,7.41
4.656000,-0.0250,-0.0720,0,2,72.46,7.41
4.658000,-0.0045,-0.0724,0,2,72.46,7.41
4.660000,-0.0001,-0.0727,0,2,72.46,7.41
4.662000,-0.0177,-0.0727,0,2,72.46,7.41
4.664000,0.0384,-0.0725,0,2,72.46,7.41
4.666000,-0.0101,-0.0719,0,2,72.46,7.41
4.668000,-0.0149,-0.0707,0,2,72.46,7.41
4.670000,-0.0044,-0.0686,0,2,72.46,7.41
4.672000,-0.0253,-0.0657,0,2,72.46,7.41
4.674000,-0.0302,-0.0621,0,2,72.46,7.41
4.676000,-0.0008,-0.0582,0,2,72.46,7.41
4.678000,0.0335,-0.0547,0,2,72.46,7.41
4.680000,0.0313,-0.0521,0,2,72.46,7.41
4.682000,-0.0045,-0.0508,0,2,72.46,7.41
4.684000,0.0429,-0.0508,0,2,72.46,7.41
4.686000,0.0135,-0.0518,0,2,72.46,7.41
4.688000,-0.0061,-0.0531,0,2,72.46,7.41
4.690000,-0.0247,-0.0543,0,2,72.46,7.41
4.692000,-0.0160,-0.0549,0,2,72.46,7.41
4.694000,0.0083,-0.0545,0,2,72.46,7.41
4.696000,0.0220,-0.0533,0,2,72.46,7.41
4.698000,-0.0032,-0.0516,0,2,72.46,7.41
4.700000,0.0241,-0.0497,0,2,72.46,7.41
4.702000,0.0059,-0.0481,0,2,72.46,7.41
4.704000,0.0193,-0.0469,0,2,72.46,7.41
4.706000,-0.0019,-0.0462,0,2,72.46,7.41
4.708000,0.0068,-0.0459,0,2,72.46,7.41
4.710000,0.0207,-0.0459,0,2,72.46,7.41
4.712000,0.0012,-0.0458,0,2,72.46,7.41
4.714000,-0.0068,-0.0455,0,2,72.46,7.41
4.716000,0.0155,-0.0448,0,2,72.46,7.41
4.718000,0.0125,-0.0437,0,2,72.46,7.41
4.720000,-0.0085,-0.0424,0,2,72.46,7.41
4.722000,0.0330,-0.0412,0,2,72.46,7.41
4.724000,-0.0274,-0.0403,0,2,72.46,7.41
4.726000,0.0409,-0.0402,0,2,72.46,7.41
4.728000,0.0296,-0.0409,0,2,72.46,7.41
4.730000,-0.0022,-0.0423,0,2,72.46,7.41
4.732000,0.0096,-0.0442,0,2,72.46,7.41
4.734000,-0.0208,-0.0458,0,2,72.46,7.41
4.736000,0.0281,-0.0467,0,2,72.46,7.41
4.738000,-0.0109,-0.0464,0,2,72.46,7.41
4.740000,-0.0014,-0.0444,0,2,72.46,7.41
4.742000,-0.0184,-0.0411,0,2,72.46,7.41
4.744000,-0.0087,-0.0369,0,2,72.46,7.41
4.746000,0.0615,-0.0325,0,2,72.46,7.41
4.748000,0.0074,-0.0287,0,2,72.46,7.41
4.750000,0.0193,-0.0262,0,2,72.46,7.41
4.752000,0.0490,-0.0255,0,2,72.46,7.41
4.754000,0.0019,-0.0265,0,2,72.46,7.41
4.756000,0.0203,-0.0290,0,2,72.46,7.41
4.758000,-0.0185,-0.0325,0,2,72.46,7.41
4.760000,-0.0021,-0.0365,0,2,72.46,7.41
4.762000,-0.0116,-0.0407,0,2,72.46,7.41
4.764000,0.0112,-0.0446,0,2,72.46,7.41
4.766000,0.0293,-0.0483,0,2,72.46,7.41
4.768000,-0.0234,-0.0514,0,2,72.46,7.41
4.770000,0.0047,-0.0538,0,2,72.46,7.41
4.772000,-0.0466,-0.0553,0,2,72.46,7.41
4.774000,-0.0123,-0.0556,0,2,72.46,7.41
4.776000,-0.0327,-0.0546,0,2,72.46,7.41
4.778000,-0.0098,-0.0522,0,2,72.46,7.41
4.780000,-0.0111,-0.0487,0,2,72.46,7.41
4.782000,0.0266,-0.0444,0,2,72.46,7.41
4.784000,-0.0366,-0.0396,0,2,72.46,7.41
4.786000,0.0035,-0.0347,0,2,72.46,7.41
4.788000,0.0319,-0.0300,0,2,72.46,7.41
4.790000,-0.0049,-0.0258,0,2,72.46,7.41
4.792000,0.0205,-0.0224,0,2,72.46,7.41
4.794000,-0.0013,-0.0198,0,2,72.46,7.41
4.796000,-0.0084,-0.0181,0,2,72.46,7.41
4.798000,0.0193,-0.0175,0,2,72.46,7.41
4.800000,0.0446,-0.0179,0,2,72.46,7.41
4.802000,0.0383,-0.0191,0,2,72.46,7.41
4.804000,-0.0121,-0.0209,0,2,72.46,7.41
4.806000,0.0159,-0.0231,0,2,72.46,7.41
4.808000,-0.0247,-0.0254,0,2,72.46,7.41
4.810000,-0.0029,-0.0275,0,2,72.46,7.41
4.812000,-0.0223,-0.0295,0,2,72.46,7.41
4.814000,0.0377,-0.0313,0,2,72.46,7.41
4.816000,0.0103,-0.0330,0,2,72.46,7.41
4.818000,0.0132,-0.0344,0,2,72.46,7.41
4.820000,-0.0188,-0.0352,0,2,72.46,7.41
4.822000,-0.0432,-0.0352,0,2,72.46,7.41
4.824000,-0.0165,-0.0343,0,2,72.46,7.41
4.826000,0.0111,-0.0326,0,2,72.46,7.41
4.828000,-0.0371,-0.0303,0,2,72.46,7.41
4.830000,0.0350,-0.0279,0,2,72.46,7.41
4.832000,0.0287,-0.0259,0,2,72.46,7.41
4.834000,-0.0386,-0.0246,0,2,72.46,7.41
4.836000,-0.0189,-0.0241,0,2,72.46,7.41
4.838000,0.0455,-0.0245,0,2,72.46,7.41
4.840000,-0.0230,-0.0255,0,2,72.46,7.41
4.842000,-0.0400,-0.0269,0,2,72.46,7.41
4.844000,0.0408,-0.0284,0,2,72.46,7.41
4.846000,-0.0222,-0.0296,0,2,72.46,7.41
4.848000,-0.0147,-0.0303,0,2,72.46,7.41
4.850000,-0.0189,-0.0304,0,2,72.46,7.41
4.852000,-0.0059,-0.0299,0,2,72.46,7.41
4.854000,-0.0095,-0.0287,0,2,72.46,7.41
4.856000,0.0002,-0.0271,0,2,72.46,7.41
4.858000,-0.0064,-0.0251,0,2,72.46,7.41
4.860000,-0.0238,-0.0228,0,2,72.46,7.41
4.862000,0.0020,-0.0206,0,2,72.46,7.41
4.864000,-0.0067,-0.0186,0,2,72.46,7.41
4.866000,0.0186,-0.0171,0,2,72.46,7.41
4.868000,-0.0160,-0.0160,0,2,72.46,7.41
4.870000,0.0056,-0.0154,0,2,72.46,7.41
4.872000,0.0006,-0.0152,0,2,72.46,7.41
4.874000,-0.0124,-0.0152,0,2,72.46,7.41
4.876000,0.0113,-0.0151,0,2,72.46,7.41
4.878000,0.0071,-0.0147,0,2,72.46,7.41
4.880000,-0.0170,-0.0139,0,2,72.46,7.41
4.882000,-0.0141,-0.0125,0,2,72.46,7.41
4.884000,-0.0111,-0.0108,0,2,72.46,7.41
4.886000,-0.0112,-0.0090,0,2,72.46,7.41
4.888000,0.0483,-0.0074,0,2,72.46,7.41
4.890000,0.0198,-0.0061,0,2,72.46,7.41
4.892000,-0.0003,-0.0052,0,2,72.46,7.41
4.894000,0.0002,-0.0045,0,2,72.46,7.41
4.896000,-0.0087,-0.0037,0,2,72.46,7.41
4.898000,-0.0381,-0.0027,0,2,72.46,7.41
4.900000,0.0079,-0.0016,0,2,72.46,7.41
4.902000,0.0313,-0.0005,0,2,72.46,7.41
4.904000,0.0139,0.0002,0,2,72.46,7.41
4.906000,0.0280,0.0003,0,2,72.46,7.41
4.908000,-0.0082,-0.0005,0,2,72.46,7.41
4.910000,0.0026,-0.0019,0,2,72.46,7.41
4.912000,-0.0126,-0.0040,0,2,72.46,7.41
4.914000,-0.0096,-0.0063,0,2,72.46,7.41
4.916000,-0.0105,-0.0086,0,2,72.46,7.41
4.918000,-0.0031,-0.0107,0,2,72.46,7.41
4.920000,-0.0054,-0.0126,0,2,72.46,7.41
4.922000,-0.0155,-0.0141,0,2,72.46,7.41
4.924000,-0.0042,-0.0152,0,2,72.46,7.41
4.926000,-0.0035,-0.0158,0,2,72.46,7.41
4.928000,-0.0529,-0.0159,0,2,72.46,7.41
4.930000,-0.0024,-0.0154,0,2,72.46,7.41
4.932000,-0.0338,-0.0143,0,2,72.46,7.41
4.934000,0.0169,-0.0126,0,2,72.46,7.41
4.936000,0.0100,-0.0102,0,2,72.46,7.41
4.938000,-0.0605,-0.0071,0,2,72.46,7.41
4.940000,0.0027,-0.0034,0,2,72.46,7.41
4.942000,0.0060,0.0007,0,2,72.46,7.41
4.944000,-0.0053,0.0048,0,2,72.46,7.41
4.946000,0.0043,0.0084,0,2,72.46,7.41
4.948000,-0.0171,0.0111,0,2,72.46,7.41
4.950000,0.0203,0.0123,0,2,72.46,7.41
4.952000,0.0317,0.0118,0,2,72.46,7.41
4.954000,0.0112,0.0095,0,2,72.46,7.41
4.956000,-0.0311,0.0057,0,2,72.46,7.41
4.958000,-0.0193,0.0007,0,2,72.46,7.41
4.960000,-0.0135,-0.0048,0,2,72.46,7.41
4.962000,-0.0175,-0.1236,0,3,73.46,7.15
4.964000,0.0080,-0.1267,0,3,73.46,7.15
4.966000,-0.0542,-0.1283,0,3,73.46,7.15
4.968000,0.0103,-0.1284,0,3,73.46,7.15
4.970000,-0.0216,-0.1270,0,3,73.46,7.15
4.972000,-0.0334,-0.1241,0,3,73.46,7.15
4.974000,-0.0126,-0.1200,0,3,73.46,7.15
4.976000,-0.0125,-0.1152,0,3,73.46,7.15
4.978000,-0.0105,-0.1102,0,3,73.46,7.15
4.980000,-0.0035,-0.1057,0,3,73.46,7.15
4.982000,0.0265,-0.1023,0,3,73.46,7.15
4.984000,0.0208,-0.1004,0,3,73.46,7.15
4.986000,-0.0109,-0.1001,0,3,73.46,7.15
4.988000,0.0232,-0.1012,0,3,73.46,7.15
4.990000,-0.0159,-0.1035,0,3,73.46,7.15
4.992000,0.0001,-0.1063,0,3,73.46,7.15
4.994000,0.0095,-0.1089,0,3,73.46,7.15
4.996000,-0.0225,-0.1107,0,3,73.46,7.15
4.998000,-0.0027,-0.1112,0,3,73.46,7.15
5.000000,0.0243,-0.1100,0,3,73.46,7.15
5.002000,-0.0165,-0.1071,0,3,73.46,7.15
5.004000,0.0008,-0.1026,0,3,73.46,7.15
5.006000,-0.0113,-0.0970,0,3,73.46,7.15
5.008000,0.0523,-0.0908,0,3,73.46,7.15
5.010000,0.0174,-0.0846,0,3,73.46,7.15
5.012000,0.0013,-0.0790,0,3,73.46,7.15
5.014000,0.0469,-0.0741,0,3,73.46,7.15
5.016000,0.0415,-0.0703,0,3,73.46,7.15
5.018000,0.0398,-0.0672,0,3,73.46,7.15
5.020000,0.0476,-0.0645,0,3,73.46,7.15
5.022000,0.0660,-0.0614,0,3,73.46,7.15
5.024000,0.0533,-0.0572,0,3,73.46,7.15
5.026000,0.0356,-0.0514,0,3,73.46,7.15
5.028000,0.0439,-0.0436,0,3,73.46,7.15
5.030000,0.0630,-0.0340,0,3,73.46,7.15
5.032000,0.0713,-0.0231,0,3,73.46,7.15
5.034000,0.1167,-0.0117,0,3,73.46,7.15
5.036000,0.1153,-0.0006,0,3,73.46,7.15
5.038000,0.1288,0.0094,0,3,73.46,7.15
5.040000,0.1458,0.0179,0,3,73.46,7.15
5.042000,0.1156,0.0249,0,3,73.46,7.15
5.044000,0.1308,0.0308,0,3,73.46,7.15
5.046000,0.1551,0.0360,0,3,73.46,7.15
5.048000,0.1339,0.0411,0,3,73.46,7.15
5.050000,0.1250,0.0464,0,3,73.46,7.15
5.052000,0.1692,0.0522,0,3,73.46,7.15
5.054000,0.1843,0.0584,0,3,73.46,7.15
5.056000,0.1685,0.0646,0,3,73.46,7.15
5.058000,0.1861,0.0704,0,3,73.46,7.15
5.060000,0.1792,0.0754,0,3,73.46,7.15
5.062000,0.1771,0.0791,0,3,73.46,7.15
5.064000,0.1898,0.0809,0,3,73.46,7.15
5.066000,0.1758,0.0807,0,3,73.46,7.15
5.068000,0.2038,0.0782,0,3,73.46,7.15
5.070000,0.2052,0.0734,0,3,73.46,7.15
5.072000,0.1426,0.0667,0,3,73.46,7.15
5.074000,0.1841,0.0586,0,3,73.46,7.15
5.076000,0.1259,0.0496,0,3,73.46,7.15
5.078000,0.1645,0.0402,0,3,73.46,7.15
5.080000,0.1104,0.0308,0,3,73.46,7.15
5.082000,0.1727,0.0218,0,3,73.46,7.15
5.084000,0.0924,0.0133,0,3,73.46,7.15
5.086000,0.1365,0.0053,0,3,73.46,7.15
5.088000,0.1255,-0.0022,0,3,73.46,7.15
5.090000,0.0538,-0.0091,0,3,73.46,7.15
5.092000,0.0890,-0.0155,0,3,73.46,7.15
5.094000,0.0843,-0.0217,0,3,73.46,7.15
5.096000,0.0754,-0.0278,0,3,73.46,7.15
5.098000,0.1089,-0.0340,0,3,73.46,7.15
5.100000,0.0457,-0.0404,0,3,73.46,7.15
5.102000,0.0754,-0.0469,0,3,73.46,7.15
5.104000,0.0644,-0.0535,0,3,73.46,7.15
5.106000,0.0309,-0.0598,0,3,73.46,7.15
5.108000,0.0251,-0.0658,0,3,73.46,7.15
5.110000,0.0636,-0.0711,0,3,73.46,7.15
5.112000,0.0266,-0.0759,0,3,73.46,7.15
5.114000,-0.0011,-0.0802,0,3,73.46,7.15
5.116000,0.0133,-0.0844,0,3,73.46,7.15
5.118000,0.0326,-0.0888,0,3,73.46,7.15
5.120000,0.0309,-0.0937,0,3,73.46,7.15
5.122000,0.0173,-0.0989,0,3,73.46,7.15
5.124000,0.0025,-0.1038,0,3,73.46,7.15
5.126000,-0.0207,-0.1075,0,3,73.46,7.15
5.128000,-0.0115,-0.1078,0,3,73.46,7.15
5.130000,0.0103,-0.1025,0,3,73.46,7.15
5.132000,0.0279,-0.0882,0,3,73.46,7.15
5.134000,0.0781,-0.0615,0,3,73.46,7.15
5.136000,0.0948,-0.0185,0,3,73.46,7.15
5.138000,0.1376,0.0442,0,3,73.46,7.15
5.140000,0.2306,0.1291,0,3,73.46,7.15
5.142000,0.3410,0.2376,0,3,73.46,7.15
5.144000,0.4581,0.3686,0,3,73.46,7.15
5.146000,0.6320,0.5193,0,3,73.46,7.15
5.148000,0.7932,0.6843,0,3,73.46,7.15
5.150000,0.9543,0.8560,0,3,73.46,7.15
5.152000,1.1437,1.0251,0,3,73.46,7.15
5.154000,1.2660,1.1812,0,3,73.46,7.15
5.156000,1.4129,1.3136,0,3,73.46,7.15
5.158000,1.5093,1.4122,0,3,73.46,7.15
5.160000,1.5636,1.4686,1,3,73.46,7.15
5.162000,1.6177,1.4772,1,3,73.46,7.15
5.164000,1.5682,1.4357,1,3,73.46,7.15
5.166000,1.5061,1.3459,0,3,73.46,7.15
5.168000,1.3222,1.2137,0,3,73.46,7.15
5.170000,1.1460,1.0485,0,3,73.46,7.15
5.172000,0.9613,0.8623,0,3,73.46,7.15
5.174000,0.7553,0.6683,0,3,73.46,7.15
5.176000,0.5821,0.4793,0,3,73.46,7.15
5.178000,0.3803,0.3067,0,3,73.46,7.15
5.180000,0.2822,0.1590,0,3,73.46,7.15
5.182000,0.1231,0.0413,0,3,73.46,7.15
5.184000,0.0426,-0.0447,0,3,73.46,7.15
5.186000,0.0064,-0.1006,0,3,73.46,7.15
5.188000,0.0121,-0.1306,0,3,73.46,7.15
5.190000,-0.0392,-0.1404,0,3,73.46,7.15
5.192000,-0.0108,-0.1361,0,3,73.46,7.15
5.194000,-0.0074,-0.1235,0,3,73.46,7.15
5.196000,0.0106,-0.1076,0,3,73.46,7.15
5.198000,0.0381,-0.0915,0,3,73.46,7.15
5.200000,0.0207,-0.0772,0,3,73.46,7.15
5.202000,0.0334,-0.0652,0,3,73.46,7.15
5.204000,0.0640,-0.0553,0,3,73.46,7.15
5.206000,0.0304,-0.0469,0,3,73.46,7.15
5.208000,0.0102,-0.0392,0,3,73.46,7.15
5.210000,0.0978,-0.0319,0,3,73.46,7.15
5.212000,0.0999,-0.0250,0,3,73.46,7.15
5.214000,0.0988,-0.0184,0,3,73.46,7.15
5.216000,0.1092,-0.0124,0,3,73.46,7.15
5.218000,0.0975,-0.0068,0,3,73.46,7.15
5.220000,0.1395,-0.0014,0,3,73.46,7.15
5.222000,0.0891,0.0043,0,3,73.46,7.15
5.224000,0.1108,0.0108,0,3,73.46,7.15
5.226000,0.1149,0.0185,0,3,73.46,7.15
5.228000,0.1141,0.0277,0,3,73.46,7.15
5.230000,0.1448,0.0383,0,3,73.46,7.15
5.232000,0.1784,0.0502,0,3,73.46,7.15
5.234000,0.1867,0.0630,0,3,73.46,7.15
5.236000,0.1832,0.0766,0,3,73.46,7.15
5.238000,0.1813,0.0907,0,3,73.46,7.15
5.240000,0.2089,0.1052,0,3,73.46,7.15
5.242000,0.2778,0.1200,0,3,73.46,7.15
5.244000,0.2175,0.1349,0,3,73.46,7.15
5.246000,0.2160,0.1498,0,3,73.46,7.15
5.248000,0.2856,0.1643,0,3,73.46,7.15
5.250000,0.3120,0.1780,0,3,73.46,7.15
5.252000,0.2780,0.1904,0,3,73.46,7.15
5.254000,0.3029,0.2011,0,3,73.46,7.15
5.256000,0.3171,0.2098,0,3,73.46,7.15
5.258000,0.3387,0.2161,0,3,73.46,7.15
5.260000,0.3297,0.2203,0,3,73.46,7.15
5.262000,0.3031,0.2226,0,3,73.46,7.15
5.264000,0.3986,0.2236,0,3,73.46,7.15
5.266000,0.3041,0.2240,0,3,73.46,7.15
5.268000,0.3373,0.2245,0,3,73.46,7.15
5.270000,0.3231,0.2257,0,3,73.46,7.15
5.272000,0.3014,0.2281,0,3,73.46,7.15
5.274000,0.3266,0.2314,0,3,73.46,7.15
5.276000,0.3241,0.2353,0,3,73.46,7.15
5.278000,0.3989,0.2390,0,3,73.46,7.15
5.280000,0.3488,0.2416,0,3,73.46,7.15
5.282000,0.3919,0.2426,0,3,73.46,7.15
5.284000,0.3433,0.2418,0,3,73.46,7.15
5.286000,0.3474,0.2393,0,3,73.46,7.15
5.288000,0.3044,0.2354,0,3,73.46,7.15
5.290000,0.3146,0.2306,0,3,73.46,7.15
5.292000,0.3339,0.2250,0,3,73.46,7.15
5.294000,0.3417,0.2189,0,3,73.46,7.15
5.296000,0.3230,0.2122,0,3,73.46,7.15
5.298000,0.3236,0.2049,0,3,73.46,7.15
5.300000,0.3151,0.1969,0,3,73.46,7.15
5.302000,0.2859,0.1884,0,3,73.46,7.15
5.304000,0.3047,0.1795,0,3,73.46,7.15
5.306000,0.2628,0.1705,0,3,73.46,7.15
5.308000,0.2640,0.1617,0,3,73.46,7.15
5.310000,0.2683,0.1533,0,3,73.46,7.15
5.312000,0.2310,0.1455,0,3,73.46,7.15
5.314000,0.2551,0.1381,0,3,73.46,7.15
5.316000,0.2198,0.1309,0,3,73.46,7.15
5.318000,0.2433,0.1237,0,3,73.46,7.15
5.320000,0.2532,0.1162,0,3,73.46,7.15
5.322000,0.2074,0.1079,0,3,73.46,7.15
5.324000,0.2077,0.0988,0,3,73.46,7.15
5.326000,0.1937,0.0889,0,3,73.46,7.15
5.328000,0.1848,0.0784,0,3,73.46,7.15
5.330000,0.1695,0.0675,0,3,73.46,7.15
5.332000,0.1800,0.0565,0,3,73.46,7.15
5.334000,0.1172,0.0457,0,3,73.46,7.15
5.336000,0.1345,0.0352,0,3,73.46,7.15
5.338000,0.1365,0.0252,0,3,73.46,7.15
5.340000,0.1667,0.0155,0,3,73.46,7.15
5.342000,0.1078,0.0064,0,3,73.46,7.15
5.344000,0.1158,-0.0020,0,3,73.46,7.15
5.346000,0.1122,-0.0096,0,3,73.46,7.15
5.348000,0.0550,-0.0161,0,3,73.46,7.15
5.350000,0.0774,-0.0216,0,3,73.46,7.15
5.352000,0.0680,-0.0261,0,3,73.46,7.15
5.354000,0.0723,-0.0301,0,3,73.46,7.15
5.356000,0.0892,-0.0340,0,3,73.46,7.15
5.358000,0.0769,-0.0386,0,3,73.46,7.15
5.360000,0.0900,-0.0442,0,3,73.46,7.15
5.362000,0.0487,-0.0510,0,3,73.46,7.15
5.364000,0.0510,-0.0589,0,3,73.46,7.15
5.366000,0.0323,-0.0674,0,3,73.46,7.15
5.368000,0.0186,-0.0760,0,3,73.46,7.15
5.370000,0.0298,-0.0838,0,3,73.46,7.15
5.372000,0.0267,-0.0904,0,3,73.46,7.15
5.374000,-0.0082,-0.0952,0,3,73.46,7.15
5.376000,0.0196,-0.0980,0,3,73.46,7.15
5.378000,0.0143,-0.0988,0,3,73.46,7.15
5.380000,-0.0087,-0.0982,0,3,73.46,7.15
5.382000,-0.0041,-0.0967,0,3,73.46,7.15
5.384000,0.0547,-0.0950,0,3,73.46,7.15
5.386000,0.0187,-0.0937,0,3,73.46,7.15
5.388000,0.0032,-0.0933,0,3,73.46,7.15
5.390000,0.0177,-0.0939,0,3,73.46,7.15
5.392000,0.0042,-0.0953,0,3,73.46,7.15
5.394000,0.0037,-0.0969,0,3,73.46,7.15
5.396000,0.0231,-0.0984,0,3,73.46,7.15
5.398000,-0.0043,-0.0992,0,3,73.46,7.15
5.400000,0.0146,-0.0990,0,3,73.46,7.15
5.402000,0.0036,-0.0979,0,3,73.46,7.15
5.404000,0.0196,-0.0958,0,3,73.46,7.15
5.406000,0.0151,-0.0934,0,3,73.46,7.15
5.408000,0.0086,-0.0910,0,3,73.46,7.15
5.410000,0.0304,-0.0891,0,3,73.46,7.15
5.412000,0.0082,-0.0883,0,3,73.46,7.15
5.414000,0.0199,-0.0886,0,3,73.46,7.15
5.416000,0.0266,-0.0901,0,3,73.46,7.15
5.418000,-0.0064,-0.0928,0,3,73.46,7.15
5.420000,0.0288,-0.0963,0,3,73.46,7.15
5.422000,0.0299,-0.1002,0,3,73.46,7.15
5.424000,0.0057,-0.1039,0,3,73.46,7.15
5.426000,-0.0332,-0.1070,0,3,73.46,7.15
5.428000,0.0184,-0.1090,0,3,73.46,7.15
5.430000,-0.0069,-0.1096,0,3,73.46,7.15
5.432000,-0.0159,-0.1090,0,3,73.46,7.15
5.434000,0.0045,-0.1073,0,3,73.46,7.15
5.436000,-0.0323,-0.1051,0,3,73.46,7.15
5.438000,0.0306,-0.1029,0,3,73.46,7.15
5.440000,0.0242,-0.1014,0,3,73.46,7.15
5.442000,0.0510,-0.1009,0,3,73.46,7.15
5.444000,-0.0083,-0.1015,0,3,73.46,7.15
5.446000,-0.0289,-0.1030,0,3,73.46,7.15
5.448000,-0.0009,-0.1049,0,3,73.46,7.15
5.450000,0.0064,-0.1068,0,3,73.46,7.15
5.452000,-0.0022,-0.1084,0,3,73.46,7.15
5.454000,-0.0262,-0.1095,0,3,73.46,7.15
5.456000,0.0154,-0.1099,0,3,73.46,7.15
5.458000,0.0166,-0.1099,0,3,73.46,7.15
5.460000,0.0067,-0.1095,0,3,73.46,7.15
5.462000,-0.0247,-0.1089,0,3,73.46,7.15
5.464000,0.0020,-0.1083,0,3,73.46,7.15
5.466000,0.0258,-0.1076,0,3,73.46,7.15
5.468000,-0.0166,-0.1068,0,3,73.46,7.15
5.470000,0.0155,-0.1059,0,3,73.46,7.15
5.472000,-0.0450,-0.1049,0,3,73.46,7.15
5.474000,0.0214,-0.1037,0,3,73.46,7.15
5.476000,0.0344,-0.1024,0,3,73.46,7.15
5.478000,-0.0106,-0.1012,0,3,73.46,7.15
5.480000,0.0203,-0.1003,0,3,73.46,7.15
5.482000,-0.0115,-0.1000,0,3,73.46,7.15
5.484000,0.0195,-0.1005,0,3,73.46,7.15
5.486000,0.0117,-0.1019,0,3,73.46,7.15
5.488000,-0.0066,-0.1043,0,3,73.46,7.15
5.490000,-0.0021,-0.1076,0,3,73.46,7.15
5.492000,-0.0026,-0.1115,0,3,73.46,7.15
5.494000,0.0013,-0.1154,0,3,73.46,7.15
5.496000,-0.0325,-0.1189,0,3,73.46,7.15
5.498000,0.0110,-0.1214,0,3,73.46,7.15
5.500000,-0.0136,-0.1224,0,3,73.46,7.15
5.502000,0.0087,-0.1214,0,3,73.46,7.15
5.504000,-0.0104,-0.1185,0,3,73.46,7.15
5.506000,-0.0538,-0.1137,0,3,73.46,7.15
5.508000,-0.0257,-0.1079,0,3,73.46,7.15
5.510000,0.0200,-0.1018,0,3,73.46,7.15
5.512000,0.0374,-0.0966,0,3,73.46,7.15
5.514000,0.0111,-0.0933,0,3,73.46,7.15
5.516000,0.0179,-0.0924,0,3,73.46,7.15
5.518000,0.0472,-0.0941,0,3,73.46,7.15
5.520000,0.0045,-0.0978,0,3,73.46,7.15
5.522000,-0.0021,-0.1027,0,3,73.46,7.15
5.524000,0.0000,-0.1076,0,3,73.46,7.15
5.526000,-0.0012,-0.1115,0,3,73.46,7.15
5.528000,-0.0383,-0.1135,0,3,73.46,7.15
5.530000,-0.0171,-0.1134,0,3,73.46,7.15
5.532000,0.0001,-0.1114,0,3,73.46,7.15
5.534000,-0.0077,-0.1081,0,3,73.46,7.15
5.536000,0.0119,-0.1045,0,3,73.46,7.15
5.538000,0.0539,-0.1013,0,3,73.46,7.15
5.540000,0.0245,-0.0991,0,3,73.46,7.15
5.542000,-0.0086,-0.0981,0,3,73.46,7.15
5.544000,-0.0039,-0.0982,0,3,73.46,7.15
5.546000,-0.0045,-0.0989,0,3,73.46,7.15
5.548000,-0.0023,-0.0999,0,3,73.46,7.15
5.550000,0.0262,-0.1009,0,3,73.46,7.15
5.552000,-0.0226,-0.1016,0,3,73.46,7.15
5.554000,0.0340,-0.1021,0,3,73.46,7.15
5.556000,0.0088,-0.1024,0,3,73.46,7.15
5.558000,0.0102,-0.1027,0,3,73.46,7.15
5.560000,-0.0025,-0.1033,0,3,73.46,7.15
5.562000,-0.0151,-0.1041,0,3,73.46,7.15
5.564000,0.0285,-0.1054,0,3,73.46,7.15
5.566000,-0.0069,-0.1070,0,3,73.46,7.15
5.568000,0.0149,-0.1089,0,3,73.46,7.15
5.570000,-0.0401,-0.1107,0,3,73.46,7.15
5.572000,0.0196,-0.1124,0,3,73.46,7.15
5.574000,0.0045,-0.1134,0,3,73.46,7.15
5.576000,-0.0223,-0.1137,0,3,73.46,7.15
5.578000,0.0041,-0.1131,0,3,73.46,7.15
5.580000,-0.0157,-0.1118,0,3,73.46,7.15
5.582000,-0.0044,-0.1100,0,3,73.46,7.15
5.584000,0.0066,-0.1081,0,3,73.46,7.15
5.586000,0.0049,-0.1064,0,3,73.46,7.15
5.588000,-0.0034,-0.1052,0,3,73.46,7.15
5.590000,0.0030,-0.1048,0,3,73.46,7.15
5.592000,0.0112,-0.1051,0,3,73.46,7.15
5.594000,0.0263,-0.1059,0,3,73.46,7.15
5.596000,-0.0261,-0.1069,0,3,73.46,7.15
5.598000,0.0081,-0.1076,0,3,73.46,7.15
5.600000,0.0021,-0.1078,0,3,73.46,7.15
5.602000,-0.0299,-0.1074,0,3,73.46,7.15
5.604000,0.0254,-0.1066,0,3,73.46,7.15
5.606000,-0.0125,-0.1056,0,3,73.46,7.15
5.608000,0.0229,-0.1048,0,3,73.46,7.15
5.610000,-0.0310,-0.1045,0,3,73.46,7.15
5.612000,0.0317,-0.1051,0,3,73.46,7.15
5.614000,0.0210,-0.1064,0,3,73.46,7.15
5.616000,0.0090,-0.1082,0,3,73.46,7.15
5.618000,-0.0201,-0.1101,0,3,73.46,7.15
5.620000,-0.0012,-0.1116,0,3,73.46,7.15
5.622000,-0.0331,-0.1124,0,3,73.46,7.15
5.624000,-0.0125,-0.1123,0,3,73.46,7.15
5.626000,0.0121,-0.1114,0,3,73.46,7.15
5.628000,-0.0152,-0.1101,0,3,73.46,7.15
5.630000,0.0312,-0.1086,0,3,73.46,7.15
5.632000,0.0150,-0.1071,0,3,73.46,7.15
5.634000,-0.0007,-0.1058,0,3,73.46,7.15
5.636000,-0.0174,-0.1045,0,3,73.46,7.15
5.638000,0.0119,-0.1033,0,3,73.46,7.15
5.640000,0.0062,-0.1019,0,3,73.46,7.15
5.642000,-0.0201,-0.1006,0,3,73.46,7.15
5.644000,0.0243,-0.0993,0,3,73.46,7.15
5.646000,0.0007,-0.0985,0,3,73.46,7.15
5.648000,0.0300,-0.0983,0,3,73.46,7.15
5.650000,0.0187,-0.0989,0,3,73.46,7.15
5.652000,-0.0082,-0.1002,0,3,73.46,7.15
5.654000,0.0159,-0.1020,0,3,73.46,7.15
5.656000,0.0118,-0.1039,0,3,73.46,7.15
5.658000,0.0030,-0.1057,0,3,73.46,7.15
5.660000,-0.0259,-0.1069,0,3,73.46,7.15
5.662000,0.0076,-0.1075,0,3,73.46,7.15
5.664000,0.0138,-0.1076,0,3,73.46,7.15
5.666000,-0.0322,-0.1075,0,3,73.46,7.15
5.668000,0.0196,-0.1077,0,3,73.46,7.15
5.670000,-0.0117,-0.1085,0,3,73.46,7.15
5.672000,0.0296,-0.1101,0,3,73.46,7.15
5.674000,-0.0145,-0.1126,0,3,73.46,7.15
5.676000,0.0174,-0.1157,0,3,73.46,7.15
5.678000,-0.0244,-0.1187,0,3,73.46,7.15
5.680000,-0.0259,-0.1212,0,3,73.46,7.15
5.682000,-0.0178,-0.1224,0,3,73.46,7.15
5.684000,-0.0259,-0.1222,0,3,73.46,7.15
5.686000,0.0012,-0.1203,0,3,73.46,7.15
5.688000,-0.0174,-0.1172,0,3,73.46,7.15
5.690000,-0.0043,-0.1132,0,3,73.46,7.15
5.692000,0.0113,-0.1090,0,3,73.46,7.15
5.694000,0.0072,-0.1053,0,3,73.46,7.15
5.696000,-0.0137,-0.1024,0,3,73.46,7.15
5.698000,0.0338,-0.1009,0,3,73.46,7.15
5.700000,0.0050,-0.1007,0,3,73.46,7.15
5.702000,0.0015,-0.1019,0,3,73.46,7.15
5.704000,-0.0093,-0.1040,0,3,73.46,7.15
5.706000,0.0018,-0.1067,0,3,73.46,7.15
5.708000,-0.0002,-0.1097,0,3,73.46,7.15
5.710000,0.0228,-0.1124,0,3,73.46,7.15
5.712000,-0.0166,-0.1145,0,3,73.46,7.15
5.714000,-0.0243,-0.1159,0,3,73.46,7.15
5.716000,-0.0066,-0.1165,0,3,73.46,7.15
5.718000,-0.0234,-0.1164,0,3,73.46,7.15
5.720000,0.0179,-0.1160,0,3,73.46,7.15
5.722000,-0.0139,-0.1154,0,3,73.46,7.15
5.724000,-0.0164,-0.1150,0,3,73.46,7.15
5.726000,0.0089,-0.1149,0,3,73.46,7.15
5.728000,0.0096,-0.1150,0,3,73.46,7.15
5.730000,-0.0117,-0.1150,0,3,73.46,7.15
5.732000,-0.0016,-0.1147,0,3,73.46,7.15
5.734000,-0.0394,-0.1137,0,3,73.46,7.15
5.736000,-0.0098,-0.1120,0,3,73.46,7.15
5.738000,0.0087,-0.1097,0,3,73.46,7.15
5.740000,0.0107,-0.1071,0,3,73.46,7.15
5.742000,0.0113,-0.1048,0,3,73.46,7.15
5.744000,-0.0108,-0.1029,0,3,73.46,7.15
5.746000,0.0030,-0.1019,0,3,73.46,7.15
5.748000,0.0513,-0.1017,0,3,73.46,7.15
5.750000,-0.0092,-0.1023,0,3,73.46,7.15
5.752000,-0.0172,-0.1033,0,3,73.46,7.15
5.754000,0.0096,-0.1044,0,3,73.46,7.15
5.756000,-0.0062,-0.1053,0,3,73.46,7.15
5.758000,0.0202,-0.1058,0,3,73.46,7.15
5.760000,0.0001,-0.1060,0,3,73.46,7.15
5.762000,-0.0216,-0.1059,0,3,73.46,7.15
5.764000,0.0178,-0.1059,0,3,73.46,7.15
5.766000,0.0118,-0.1061,0,3,73.46,7.15
5.768000,-0.0158,-0.1069,0,3,73.46,7.15
5.770000,0.0101,-0.1082,0,3,73.46,7.15
5.772000,0.0085,-0.1099,0,3,73.46,7.15
5.774000,0.0068,-0.1119,0,3,73.46,7.15
5.776000,-0.0169,-0.1136,0,3,73.46,7.15
5.778000,-0.0053,-0.1147,0,3,73.46,7.15
5.780000,-0.0096,-0.1149,0,3,73.46,7.15
5.782000,-0.0211,-0.1141,0,3,73.46,7.15
5.784000,-0.0234,-0.1124,0,3,73.46,7.15
5.786000,0.0192,-0.1101,0,3,73.46,7.15
5.788000,0.0186,-0.1076,0,3,73.46,7.15
5.790000,0.0220,-0.1053,0,3,73.46,7.15
5.792000,-0.0203,-0.1037,0,3,73.46,7.15
5.794000,-0.0030,-0.1029,0,3,73.46,7.15
5.796000,-0.0035,-0.1028,0,3,73.46,7.15
5.798000,0.0223,-0.1034,0,3,73.46,7.15
5.800000,0.0053,-0.1043,0,3,73.46,7.15
5.802000,0.0046,-0.1053,0,3,73.46,7.15
5.804000,0.0302,-0.1058,0,3,73.46,7.15
5.806000,-0.0088,-0.1054,0,3,73.46,7.15
5.808000,-0.0336,-0.1039,0,3,73.46,7.15
5.810000,0.0091,-0.1011,0,3,73.46,7.15
5.812000,0.0065,-0.0975,0,3,73.46,7.15
5.814000,0.0425,-0.0936,0,3,73.46,7.15
5.816000,0.0067,-0.0899,0,3,73.46,7.15
5.818000,0.0432,-0.0871,0,3,73.46,7.15
5.820000,0.0157,-0.0856,0,3,73.46,7.15
5.822000,-0.0037,-0.0855,0,3,73.46,7.15
5.824000,0.0393,-0.0866,0,3,73.46,7.15
5.826000,0.0239,-0.0886,0,3,73.46,7.15
5.828000,0.0333,-0.0906,0,3,73.46,7.15
5.830000,0.0069,-0.0920,0,3,73.46,7.15
5.832000,0.0252,-0.0919,0,3,73.46,7.15
5.834000,-0.0064,-0.0896,0,3,73.46,7.15
5.836000,0.0444,-0.0849,0,3,73.46,7.15
5.838000,-0.0029,-0.0778,0,3,73.46,7.15
5.840000,0.0382,-0.0689,0,3,73.46,7.15
5.842000,0.0648,-0.0588,0,3,73.46,7.15
5.844000,0.0400,-0.0485,0,3,73.46,7.15
5.846000,0.1056,-0.0387,0,3,73.46,7.15
5.848000,0.1070,-0.0299,0,3,73.46,7.15
5.850000,0.0887,-0.0223,0,3,73.46,7.15
5.852000,0.0537,-0.0155,0,3,73.46,7.15
5.854000,0.0839,-0.0091,0,3,73.46,7.15
5.856000,0.1034,-0.0028,0,3,73.46,7.15
5.858000,0.1237,0.0040,0,3,73.46,7.15
5.860000,0.1230,0.0112,0,3,73.46,7.15
5.862000,0.1496,0.0191,0,3,73.46,7.15
5.864000,0.1218,0.0277,0,3,73.46,7.15
5.866000,0.1397,0.0367,0,3,73.46,7.15
5.868000,0.1831,0.0462,0,3,73.46,7.15
5.870000,0.1416,0.0557,0,3,73.46,7.15
5.872000,0.1370,0.0648,0,3,73.46,7.15
5.874000,0.1948,0.0730,0,3,73.46,7.15
5.876000,0.2331,0.0795,0,3,73.46,7.15
5.878000,0.1576,0.0838,0,3,73.46,7.15
5.880000,0.2057,0.0855,0,3,73.46,7.15
5.882000,0.1892,0.0846,0,3,73.46,7.15
5.884000,0.2196,0.0812,0,3,73.46,7.15
5.886000,0.1672,0.0758,0,3,73.46,7.15
5.888000,0.1539,0.0689,0,3,73.46,7.15
5.890000,0.1750,0.0613,0,3,73.46,7.15
5.892000,0.1936,0.0535,0,3,73.46,7.15
5.894000,0.1316,0.0459,0,3,73.46,7.15
5.896000,0.1322,0.0387,0,3,73.46,7.15
5.898000,0.1462,0.0318,0,3,73.46,7.15
5.900000,0.1376,0.0253,0,3,73.46,7.15
5.902000,0.1557,0.0186,0,3,73.46,7.15
5.904000,0.1033,0.0115,0,3,73.46,7.15
5.906000,0.1027,0.0037,0,3,73.46,7.15
5.908000,0.0946,-0.0049,0,3,73.46,7.15
5.910000,0.0911,-0.0145,0,3,73.46,7.15
5.912000,0.0924,-0.0249,0,3,73.46,7.15
5.914000,0.1036,-0.0358,0,3,73.46,7.15
5.916000,0.0747,-0.0467,0,3,73.46,7.15
5.918000,0.0152,-0.0570,0,3,73.46,7.15
5.920000,0.0358,-0.0659,0,3,73.46,7.15
5.922000,0.0274,-0.0731,0,3,73.46,7.15
5.924000,0.0424,-0.0781,0,3,73.46,7.15
5.926000,0.0485,-0.0810,0,3,73.46,7.15
5.928000,-0.0003,-0.0821,0,3,73.46,7.15
5.930000,0.0532,-0.0820,0,3,73.46,7.15
5.932000,0.0232,-0.0813,0,3,73.46,7.15
5.934000,-0.0179,-0.0809,0,3,73.46,7.15
5.936000,0.0496,-0.0816,0,3,73.46,7.15
5.938000,0.0413,-0.0839,0,3,73.46,7.15
5.940000,0.0123,-0.0881,0,3,73.46,7.15
5.942000,0.0119,-0.0936,0,3,73.46,7.15
5.944000,0.0028,-0.0993,0,3,73.46,7.15
5.946000,0.0331,-0.1029,0,3,73.46,7.15
5.948000,0.0044,-0.1015,0,3,73.46,7.15
5.950000,0.0068,-0.0915,0,3,73.46,7.15
5.952000,0.0461,-0.0686,0,3,73.46,7.15
5.954000,0.0673,-0.0291,0,3,73.46,7.15
5.956000,0.1467,0.0309,0,3,73.46,7.15
5.958000,0.2433,0.1140,0,3,73.46,7.15
5.960000,0.3692,0.2213,0,3,73.46,7.15
5.962000,0.4141,0.3522,0,3,73.46,7.15
5.964000,0.5823,0.5038,0,3,73.46,7.15
5.966000,0.7692,0.6707,0,3,73.46,7.15
5.968000,0.9644,0.8451,0,3,73.46,7.15
5.970000,1.1021,1.0174,0,3,73.46,7.15
5.972000,1.2876,1.1765,0,3,73.46,7.15
5.974000,1.4357,1.3114,0,3,73.46,7.15
5.976000,1.5091,1.4118,0,3,73.46,7.15
5.978000,1.6178,1.4696,1,3,73.46,7.15
5.980000,1.5923,1.4795,1,3,73.46,7.15
5.982000,1.5588,1.4400,1,3,73.46,7.15
5.984000,1.4565,1.3531,0,3,73.46,7.15
5.986000,1.3354,1.2247,0,3,73.46,7.15
5.988000,1.1841,1.0637,0,3,73.46,7.15
5.990000,0.9897,0.8814,0,3,73.46,7.15
5.992000,0.7904,0.6898,0,3,73.46,7.15
5.994000,0.6041,0.5012,0,3,73.46,7.15
5.996000,0.4516,0.3266,0,3,73.46,7.15
5.998000,0.2548,0.1746,0,3,73.46,7.15
6.000000,0.1355,0.0511,0,3,73.46,7.15
6.002000,0.0390,-0.0415,0,3,73.46,7.15
6.004000,0.0128,-0.1037,0,3,73.46,7.15
6.006000,-0.0290,-0.1387,0,3,73.46,7.15
6.008000,-0.0203,-0.1517,0,3,73.46,7.15
6.010000,-0.0235,-0.1488,0,3,73.46,7.15
6.012000,-0.0070,-0.1358,0,3,73.46,7.15
6.014000,-0.0207,-0.1182,0,3,73.46,7.15
6.016000,0.0353,-0.0997,0,3,73.46,7.15
6.018000,0.0125,-0.0831,0,3,73.46,7.15
6.020000,0.0475,-0.0694,0,3,73.46,7.15
6.022000,0.0468,-0.0586,0,3,73.46,7.15
6.024000,0.0234,-0.0501,0,3,73.46,7.15
6.026000,0.0480,-0.0428,0,3,73.46,7.15
6.028000,0.0783,-0.0357,0,3,73.46,7.15
6.030000,0.1075,-0.0281,0,3,73.46,7.15
6.032000,0.0935,-0.0195,0,3,73.46,7.15
6.034000,0.0889,-0.0098,0,3,73.46,7.15
6.036000,0.1080,0.0010,0,3,73.46,7.15
6.038000,0.1342,0.0126,0,3,73.46,7.15
6.040000,0.1081,0.0245,0,3,73.46,7.15
6.042000,0.1722,0.0363,0,3,73.46,7.15
6.044000,0.1397,0.0477,0,3,73.46,7.15
6.046000,0.1665,0.0584,0,3,73.46,7.15
6.048000,0.1928,0.0683,0,3,73.46,7.15
6.050000,0.1887,0.0774,0,3,73.46,7.15
6.052000,0.1819,0.0859,0,3,73.46,7.15
6.054000,0.1844,0.0940,0,3,73.46,7.15
6.056000,0.2449,0.1018,0,3,73.46,7.15
6.058000,0.2009,0.1097,0,3,73.46,7.15
6.060000,0.2277,0.1178,0,3,73.46,7.15
6.062000,0.2349,0.1262,0,3,73.46,7.15
6.064000,0.2511,0.1350,0,3,73.46,7.15
6.066000,0.2432,0.1442,0,3,73.46,7.15
6.068000,0.2643,0.1539,0,3,73.46,7.15
6.070000,0.2819,0.1638,0,3,73.46,7.15
6.072000,0.2700,0.1738,0,3,73.46,7.15
6.074000,0.2838,0.1836,0,3,73.46,7.15
6.076000,0.3151,0.1928,0,3,73.46,7.15
6.078000,0.3155,0.2012,0,3,73.46,7.15
6.080000,0.3114,0.2084,0,3,73.46,7.15
6.082000,0.3152,0.2145,0,3,73.46,7.15
6.084000,0.3540,0.2194,0,3,73.46,7.15
6.086000,0.3072,0.2233,0,3,73.46,7.15
6.088000,0.3376,0.2265,0,3,73.46,7.15
6.090000,0.3653,0.2293,0,3,73.46,7.15
6.092000,0.3107,0.2321,0,3,73.46,7.15
6.094000,0.3479,0.2348,0,3,73.46,7.15
6.096000,0.3425,0.2374,0,3,73.46,7.15
6.098000,0.3474,0.2397,0,3,73.46,7.15
6.100000,0.3549,0.2412,0,3,73.46,7.15
6.102000,0.3499,0.2417,0,3,73.46,7.15
6.104000,0.3552,0.2407,0,3,73.46,7.15
6.106000,0.3297,0.2381,0,3,73.46,7.15
6.108000,0.3698,0.2341,0,3,73.46,7.15
6.110000,0.3393,0.2289,0,3,73.46,7.15
6.112000,0.3269,0.2228,0,3,73.46,7.15
6.114000,0.3108,0.2163,0,3,73.46,7.15
6.116000,0.3162,0.2098,0,3,73.46,7.15
6.118000,0.3191,0.2034,0,3,73.46,7.15
6.120000,0.3001,0.1971,0,3,73.46,7.15
6.122000,0.3081,0.1908,0,3,73.46,7.15
6.124000,0.2958,0.1839,0,3,73.46,7.15
6.126000,0.2416,0.1762,0,3,73.46,7.15
6.128000,0.3192,0.1673,0,3,73.46,7.15
6.130000,0.2577,0.1571,0,3,73.46,7.15
6.132000,0.2503,0.1454,0,3,73.46,7.15
6.134000,0.2631,0.1328,0,3,73.46,7.15
6.136000,0.2328,0.1196,0,3,73.46,7.15
6.138000,0.2067,0.1065,0,3,73.46,7.15
6.140000,0.1860,0.0942,0,3,73.46,7.15
6.142000,0.1752,0.0832,0,3,73.46,7.15
6.144000,0.2055,0.0738,0,3,73.46,7.15
6.146000,0.1682,0.0660,0,3,73.46,7.15
6.148000,0.1749,0.0596,0,3,73.46,7.15
6.150000,0.1485,0.0540,0,3,73.46,7.15
