timestamp_s,raw_mV,filtered_mV,is_r_peak,loop,hr_bpm,snr_db
0.000000,-1796.6250,-0.1156,0,2,,-34.52
0.002000,-1796.6250,27.1181,0,2,,-34.52
0.004000,-1921.9688,53.7030,0,2,,-34.52
0.006000,-1648.5937,78.7484,0,2,,-34.52
0.008000,-1648.6875,101.1720,0,2,,-34.52
0.010000,-1648.6875,119.9011,0,2,,-34.52
0.012000,-1648.7188,134.1604,0,2,,-34.52
0.014000,-1648.7188,143.6918,0,2,,-34.52
0.016000,-1648.6562,148.8107,0,2,,-34.52
0.018000,-1648.6875,150.3019,0,2,,-34.52
0.020000,-1648.5937,149.2160,0,2,,-34.52
0.022000,-1648.6250,146.6454,0,2,,-34.52
0.024000,-1648.6250,143.5421,0,2,,-34.52
0.026000,-1648.5937,140.6080,0,2,,-34.52
0.028000,-1648.6562,138.2627,0,2,,-34.52
0.030000,-1648.8125,136.6710,0,2,,-34.52
0.032000,-1648.6875,135.8042,0,2,,-34.52
0.034000,-1648.6875,135.5108,0,2,,-34.52
0.036000,-1648.7188,135.5807,0,2,,-34.52
0.038000,-1648.5937,135.7954,0,2,,-34.52
0.040000,-1648.5937,135.9627,0,2,,-34.52
0.042000,-1648.5625,135.9401,0,2,,-34.52
0.044000,-1648.6250,135.6472,0,2,,-34.52
0.046000,-1648.6250,135.0707,0,2,,-34.52
0.048000,-1648.7188,134.2578,0,2,,-34.52
0.050000,-1648.6875,133.3009,0,2,,-34.52
0.052000,-1648.6562,132.3126,0,2,,-34.52
0.054000,-1648.5937,131.3979,0,2,,-34.52
0.056000,-1648.6562,130.6283,0,2,,-34.52
0.058000,-1648.5937,130.0259,0,2,,-34.52
0.060000,-1648.6875,129.5620,0,2,,-34.52
0.062000,-1648.5937,129.1702,0,2,,-34.52
0.064000,-1648.5937,128.7706,0,2,,-34.52
0.066000,-1648.6250,128.2963,0,2,,-34.52
0.068000,-1648.7188,127.7140,0,2,,-34.52
0.070000,-1648.6562,127.0320,0,2,,-34.52
0.072000,-1648.6562,126.2939,0,2,,-34.52
0.074000,-1648.6875,125.5596,0,2,,-34.52
0.076000,-1648.5625,124.8826,0,2,,-34.52
0.078000,-1648.6250,124.2909,0,2,,-34.52
0.080000,-1648.5937,123.7776,0,2,,-34.52
0.082000,-1648.6875,123.3061,0,2,,-34.52
0.084000,-1648.5937,122.8250,0,2,,-34.52
0.086000,-1648.6250,122.2887,0,2,,-34.52
0.088000,-1648.6250,121.6747,0,2,,-34.52
0.090000,-1648.5625,120.9914,0,2,,-34.52
0.092000,-1648.6875,120.2742,0,2,,-34.52
0.094000,-1648.6562,119.5708,0,2,,-34.52
0.096000,-1648.6562,118.9228,0,2,,-34.52
0.098000,-1648.5937,118.3495,0,2,,-34.52
0.100000,-1648.5937,117.8412,0,2,,-34.52
0.102000,-1648.5625,117.3631,0,2,,-34.52
0.104000,-1648.6250,116.8695,0,2,,-34.52
0.106000,-1648.6250,116.3213,0,2,,-34.52
0.108000,-1648.6875,115.7006,0,2,,-34.52
0.110000,-1648.7500,115.0178,0,2,,-34.52
0.112000,-1648.6562,114.3067,0,2,,-34.52
0.114000,-1648.6250,113.6114,0,2,,-34.52
0.116000,-1648.5937,112.9700,0,2,,-34.52
0.118000,-1648.8125,112.3999,0,2,,-34.52
0.120000,-1648.5937,111.8921,0,2,,-34.52
0.122000,-1648.5937,111.4149,0,2,,-34.52
0.124000,-1648.6250,110.9265,0,2,,-34.52
0.126000,-1648.6562,110.3912,0,2,,-34.52
0.128000,-1648.6562,109.7925,0,2,,-34.52
0.130000,-1648.6875,109.1390,0,2,,-34.52
0.132000,-1648.6875,108.4602,0,2,,-34.52
0.134000,-1648.7188,107.7945,0,2,,-34.52
0.136000,-1648.5937,107.1746,0,2,,-34.52
0.138000,-1648.5937,106.6147,0,2,,-34.52
0.140000,-1648.4062,106.1054,0,2,,-34.52
0.142000,-1648.5312,105.6183,0,2,,-34.52
0.144000,-1648.6250,105.1164,0,2,,-34.52
0.146000,-1648.7812,104.5694,0,2,,-34.52
0.148000,-1648.5937,103.9644,0,2,,-34.52
0.150000,-1648.6875,103.3107,0,2,,-34.52
0.152000,-1648.6562,102.6365,0,2,,-34.52
0.154000,-1648.6562,101.9775,0,2,,-34.52
0.156000,-1648.6875,101.3635,0,2,,-34.52
0.158000,-1648.5937,100.8073,0,2,,-34.52
0.160000,-1648.5312,100.2999,0,2,,-34.52
0.162000,-1648.5312,99.8148,0,2,,-34.52
0.164000,-1648.6250,99.3177,0,2,,-34.52
0.166000,-1648.6562,98.7798,0,2,,-34.52
0.168000,-1648.6875,98.1888,0,2,,-34.52
0.170000,-1648.6875,97.5527,0,2,,-34.52
0.172000,-1648.6562,96.8967,0,2,,-34.52
0.174000,-1648.6250,96.2534,0,2,,-34.52
0.176000,-1648.6875,95.6503,0,2,,-34.52
0.178000,-1648.5937,95.0995,0,2,,-34.52
0.180000,-1648.5312,94.5937,0,2,,-34.52
0.182000,-1648.5937,94.1091,0,2,,-34.52
0.184000,-1648.5625,93.6149,0,2,,-34.52
0.186000,-1648.6250,93.0851,0,2,,-34.52
0.188000,-1648.6875,92.5079,0,2,,-34.52
0.190000,-1648.6562,91.8899,0,2,,-34.52
0.192000,-1648.6875,91.2533,0,2,,-34.52
0.194000,-1648.6875,90.6268,0,2,,-34.52
0.196000,-1648.4688,90.0346,0,2,,-34.52
0.198000,-1648.5937,89.4878,0,2,,-34.52
0.200000,-1648.5625,88.9799,0,2,,-34.52
0.202000,-1648.5937,88.4903,0,2,,-34.52
0.204000,-1648.6250,87.9919,0,2,,-34.52
0.206000,-1648.6250,87.4621,0,2,,-34.52
0.208000,-1648.6562,86.8907,0,2,,-34.52
0.210000,-1648.7188,86.2843,0,2,,-34.52
0.212000,-1648.5625,85.6629,0,2,,-34.52
0.214000,-1648.6562,85.0527,0,2,,-34.52
0.216000,-1648.6562,84.4755,0,2,,-34.52
0.218000,-1648.5937,83.9408,0,2,,-34.52
0.220000,-1648.5937,83.4421,0,2,,-34.52
0.222000,-1648.5937,82.9593,0,2,,-34.52
0.224000,-1648.5625,82.4669,0,2,,-34.52
0.226000,-1648.5625,81.9434,0,2,,-34.52
0.228000,-1648.6562,81.3796,0,2,,-34.52
0.230000,-1648.6875,80.7818,0,2,,-34.52
0.232000,-1648.6562,80.1693,0,2,,-34.52
0.234000,-1648.7500,79.5672,0,2,,-34.52
0.236000,-1648.6562,78.9965,0,2,,-34.52
0.238000,-1648.5937,78.4669,0,2,,-34.52
0.240000,-1648.5625,77.9730,0,2,,-34.52
0.242000,-1648.6250,77.4971,0,2,,-34.52
0.244000,-1648.6250,77.0158,0,2,,-34.52
0.246000,-1648.5937,76.5089,0,2,,-34.52
0.248000,-1648.7188,75.9669,0,2,,-34.52
0.250000,-1648.6875,75.3939,0,2,,-34.52
0.252000,-1648.6562,74.8056,0,2,,-34.52
0.254000,-1648.5625,74.2233,0,2,,-34.52
0.256000,-1648.6562,73.6655,0,2,,-34.52
0.258000,-1648.6250,73.1412,0,2,,-34.52
0.260000,-1648.5625,72.6468,0,2,,-34.52
0.262000,-1648.6875,72.1677,0,2,,-34.52
0.264000,-1648.5937,71.6844,0,2,,-34.52
0.266000,-1648.6562,71.1801,0,2,,-34.52
0.268000,-1648.7188,70.6469,0,2,,-34.52
0.270000,-1648.6875,70.0887,0,2,,-34.52
0.272000,-1648.6875,69.5195,0,2,,-34.52
0.274000,-1648.6250,68.9578,0,2,,-34.52
0.276000,-1648.5937,68.4197,0,2,,-34.52
0.278000,-1648.5937,67.9123,0,2,,-34.52
0.280000,-1648.5937,67.4317,0,2,,-34.52
0.282000,-1648.7812,66.9640,0,2,,-34.52
0.284000,-1648.5625,66.4912,0,2,,-34.52
0.286000,-1648.5937,65.9977,0,2,,-34.52
0.288000,-1648.6562,65.4760,0,2,,-34.52
0.290000,-1648.6875,64.9301,0,2,,-34.52
0.292000,-1648.6875,64.3730,0,2,,-34.52
0.294000,-1648.6875,63.8222,0,2,,-34.52
0.296000,-1648.6875,63.2928,0,2,,-34.52
0.298000,-1648.5625,62.7918,0,2,,-34.52
0.300000,-1648.5937,62.3162,0,2,,-34.52
0.302000,-1648.5937,61.8542,0,2,,-34.52
0.304000,-1648.7188,61.3900,0,2,,-34.52
0.306000,-1648.6250,60.9101,0,2,,-34.52
0.308000,-1648.7188,60.4081,0,2,,-34.52
0.310000,-1648.8125,59.8868,0,2,,-34.52
0.312000,-1648.5312,59.3569,0,2,,-34.52
0.314000,-1648.6875,58.8325,0,2,,-34.52
0.316000,-1648.5625,58.3257,0,2,,-34.52
0.318000,-1648.5625,57.8414,0,2,,-34.52
0.320000,-1648.6250,57.3763,0,2,,-34.52
0.322000,-1648.6250,56.9195,0,2,,-34.52
0.324000,-1648.5937,56.4570,0,2,,-34.52
0.326000,-1648.7188,55.9775,0,2,,-34.52
0.328000,-1648.6875,55.4764,0,2,,-34.52
0.330000,-1648.6875,54.9579,0,2,,-34.52
0.332000,-1648.6875,54.4333,0,2,,-34.52
0.334000,-1648.6562,53.9173,0,2,,-34.52
0.336000,-1648.6250,53.4219,0,2,,-34.52
0.338000,-1648.8125,52.9525,0,2,,-34.52
0.340000,-1648.4688,52.5057,0,2,,-34.52
0.342000,-1648.6250,52.0707,0,2,,-34.52
0.344000,-1648.6562,51.6335,0,2,,-34.52
0.346000,-1648.6875,51.1817,0,2,,-34.52
0.348000,-1648.6562,50.7093,0,2,,-34.52
0.350000,-1648.7188,50.2183,0,2,,-34.52
0.352000,-1648.5937,49.7175,0,2,,-34.52
0.354000,-1648.5937,49.2194,0,2,,-34.52
0.356000,-1648.6562,48.7349,0,2,,-34.52
0.358000,-1648.5937,48.2700,0,2,,-34.52
0.360000,-1648.6250,47.8229,0,2,,-34.52
0.362000,-1648.6250,47.3861,0,2,,-34.52
0.364000,-1648.6250,46.9490,0,2,,-34.52
0.366000,-1648.6562,46.5023,0,2,,-34.52
0.368000,-1648.7500,46.0418,0,2,,-34.52
0.370000,-1648.6562,45.5698,0,2,,-34.52
0.372000,-1648.6250,45.0941,0,2,,-34.52
0.374000,-1648.6562,44.6245,0,2,,-34.52
0.376000,-1648.6562,44.1687,0,2,,-34.52
0.378000,-1648.5625,43.7293,0,2,,-34.52
0.380000,-1648.5937,43.3024,0,2,,-34.52
0.382000,-1648.4375,42.8791,0,2,,-34.52
0.384000,-1648.6250,42.4491,0,2,,-34.52
0.386000,-1648.6875,42.0043,0,2,,-34.52
0.388000,-1648.7188,41.5427,0,2,,-34.52
0.390000,-1648.7188,41.0688,0,2,,-34.52
0.392000,-1648.6562,40.5921,0,2,,-34.52
0.394000,-1648.6250,40.1241,0,2,,-34.52
0.396000,-1648.8125,39.6739,0,2,,-34.52
0.398000,-1648.5625,39.2448,0,2,,-34.52
0.400000,-1648.6250,38.8336,0,2,,-34.52
0.402000,-1648.6250,38.4315,0,2,,-34.52
0.404000,-1648.6250,38.0275,0,2,,-34.52
0.406000,-1648.7188,37.6126,0,2,,-34.52
0.408000,-1648.6562,37.1826,0,2,,-34.52
0.410000,-1648.6562,36.7397,0,2,,-34.52
0.412000,-1648.6875,36.2915,0,2,,-34.52
0.414000,-1648.6562,35.8479,0,2,,-34.52
0.416000,-1648.7188,35.4175,0,2,,-34.52
0.418000,-1648.5312,35.0043,0,2,,-34.52
0.420000,-1648.5937,34.6066,0,2,,-34.52
0.422000,-1648.5937,34.2175,0,2,,-34.52
0.424000,-1648.6875,33.8280,0,2,,-34.52
0.426000,-1648.5937,33.4301,0,2,,-34.52
0.428000,-1648.6562,33.0195,0,2,,-34.52
0.430000,-1648.6562,32.5975,0,2,,-34.52
0.432000,-1648.6250,32.1697,0,2,,-34.52
0.434000,-1648.5937,31.7436,0,2,,-34.52
0.436000,-1648.6250,31.3262,0,2,,-34.52
0.438000,-1648.4688,30.9208,0,2,,-34.52
0.440000,-1648.6562,30.5260,0,2,,-34.52
0.442000,-1648.5937,30.1369,0,2,,-34.52
0.444000,-1648.6562,29.7467,0,2,,-34.52
0.446000,-1648.6562,29.3496,0,2,,-34.52
0.448000,-1648.6250,28.9435,0,2,,-34.52
0.450000,-1648.7188,28.5305,0,2,,-34.52
0.452000,-1648.7188,28.1161,0,2,,-34.52
0.454000,-1648.6562,27.7075,0,2,,-34.52
0.456000,-1648.5937,27.3104,0,2,,-34.52
0.458000,-1648.5937,26.9268,0,2,,-34.52
0.460000,-1648.5937,26.5547,0,2,,-34.52
0.462000,-1648.6250,26.1886,0,2,,-34.52
0.464000,-1648.6562,25.8215,0,2,,-34.52
0.466000,-1648.6562,25.4481,0,2,,-34.52
0.468000,-1648.7188,25.0658,0,2,,-34.52
0.470000,-1648.6875,24.6764,0,2,,-34.52
0.472000,-1648.6250,24.2848,0,2,,-34.52
0.474000,-1648.6562,23.8974,0,2,,-34.52
0.476000,-1648.5312,23.5191,0,2,,-34.52
0.478000,-1648.5937,23.1520,0,2,,-34.52
0.480000,-1648.5937,22.7943,0,2,,-34.52
0.482000,-1648.6875,22.4409,0,2,,-34.52
0.484000,-1648.6250,22.0854,0,2,,-34.52
0.486000,-1648.6562,21.7224,0,2,,-34.52
0.488000,-1648.6250,21.3501,0,2,,-34.52
0.490000,-1648.6250,20.9703,0,2,,-34.52
0.492000,-1648.6250,20.5885,0,2,,-34.52
0.494000,-1648.6562,20.2117,0,2,,-34.52
0.496000,-1648.8125,19.8454,0,2,,-34.52
0.498000,-1648.5625,19.4922,0,2,,-34.52
0.500000,-1648.6250,19.1501,0,2,,-34.52
0.502000,-1648.6250,18.8139,0,2,,-34.52
0.504000,-1648.5625,18.4771,0,2,,-34.52
0.506000,-1648.6562,18.1342,0,2,,-34.52
0.508000,-1648.6875,17.7833,0,2,,-34.52
0.510000,-1648.7500,17.4259,0,2,,-34.52
0.512000,-1648.6250,17.0670,0,2,,-34.52
0.514000,-1648.6562,16.7124,0,2,,-34.52
0.516000,-1648.6250,16.3670,0,2,,-34.52
0.518000,-1648.6562,16.0327,0,2,,-34.52
0.520000,-1648.6250,15.7076,0,2,,-34.52
0.522000,-1648.6250,15.3874,0,2,,-34.52
0.524000,-1648.5000,15.0664,0,2,,-34.52
0.526000,-1648.6562,14.7405,0,2,,-34.52
0.528000,-1648.6562,14.4080,0,2,,-34.52
0.530000,-1648.7812,14.0708,0,2,,-34.52
0.532000,-1648.6875,13.7329,0,2,,-34.52
0.534000,-1648.5937,13.3988,0,2,,-34.52
0.536000,-1648.5625,13.0719,0,2,,-34.52
0.538000,-1648.5312,12.7527,0,2,,-34.52
0.540000,-1648.6250,12.4393,0,2,,-34.52
0.542000,-1648.6562,12.1274,0,2,,-34.52
0.544000,-1648.6250,11.8124,0,2,,-34.52
0.546000,-1648.6250,11.4911,0,2,,-34.52
0.548000,-1648.6875,11.1634,0,2,,-34.52
0.550000,-1648.6562,10.8320,0,2,,-34.52
0.552000,-1648.8125,10.5023,0,2,,-34.52
0.554000,-1648.5937,10.1800,0,2,,-34.52
0.556000,-1648.5937,9.8699,0,2,,-34.52
0.558000,-1648.7188,9.5733,0,2,,-34.52
0.560000,-1648.6250,9.2884,0,2,,-34.52
0.562000,-1648.6562,9.0101,0,2,,-34.52
0.564000,-1648.6250,8.7321,0,2,,-34.52
0.566000,-1648.6562,8.4487,0,2,,-34.52
0.568000,-1648.5625,8.1565,0,2,,-34.52
0.570000,-1648.6250,7.8557,0,2,,-34.52
0.572000,-1648.6250,7.5495,0,2,,-34.52
0.574000,-1648.5625,7.2431,0,2,,-34.52
0.576000,-1648.5937,6.9415,0,2,,-34.52
0.578000,-1648.6250,6.6481,0,2,,-34.52
0.580000,-1648.7188,6.3635,0,2,,-34.52
0.582000,-1648.5000,6.0856,0,2,,-34.52
0.584000,-1648.6875,5.8104,0,2,,-34.52
0.586000,-1648.7188,5.5339,0,2,,-34.52
0.588000,-1648.5937,5.2535,0,2,,-34.52
0.590000,-1648.5937,4.9686,0,2,,-34.52
0.592000,-1648.6562,4.6810,0,2,,-34.52
0.594000,-1648.5937,4.3942,0,2,,-34.52
0.596000,-1648.5937,4.1116,0,2,,-34.52
0.598000,-1648.5625,3.8355,0,2,,-34.52
0.600000,-1648.6562,3.5666,0,2,,-34.52
0.602000,-1648.7188,3.3036,0,2,,-34.52
0.604000,-1648.5937,3.0437,0,2,,-34.52
0.606000,-1648.7188,2.7841,0,2,,-34.52
0.608000,-1648.7188,2.5228,0,2,,-34.52
0.610000,-1648.5937,2.2593,0,2,,-34.52
0.612000,-1648.6250,1.9947,0,2,,-34.52
0.614000,-1648.5625,1.7310,0,2,,-34.52
0.616000,-1648.5000,1.4706,0,2,,-34.52
0.618000,-1648.6250,1.2150,0,2,,-34.52
0.620000,-1648.6875,0.9643,0,2,,-34.52
0.622000,-1648.6562,0.7173,0,2,,-34.52
0.624000,-1648.6250,0.4715,0,2,,-34.52
0.626000,-1648.6875,0.2247,0,2,,-34.52
0.628000,-1648.6562,-0.0248,0,2,,-34.52
0.630000,-1648.6562,-0.2768,0,2,,-34.52
0.632000,-1648.5937,-0.5302,0,2,,-34.52
0.634000,-1648.5937,-0.7826,0,2,,-34.52
0.636000,-1648.5625,-1.0316,0,2,,-34.52
0.638000,-1648.6875,-1.2755,0,2,,-34.52
0.640000,-1648.6250,-1.5139,0,2,,-34.52
0.642000,-1648.6250,-1.7476,0,2,,-34.52
0.644000,-1648.7188,-1.9780,0,2,,-34.52
0.646000,-1648.7188,-2.2065,0,2,,-34.52
0.648000,-1648.6875,-2.4342,0,2,,-34.52
0.650000,-1648.6562,-2.6609,0,2,,-34.52
0.652000,-1648.5937,-2.8860,0,2,,-34.52
0.654000,-1648.6562,-3.1085,0,2,,-34.52
0.656000,-1648.5312,-3.3280,0,2,,-34.52
0.658000,-1648.6250,-3.5448,0,2,,-34.52
0.660000,-1648.5625,-3.7604,0,2,,-34.52
0.662000,-1648.5625,-3.9767,0,2,,-34.52
0.664000,-1648.6875,-4.1955,0,2,,-34.52
0.666000,-1648.7188,-4.4176,0,2,,-34.52
0.668000,-1648.6562,-4.6428,0,2,,-34.52
0.670000,-1648.6250,-4.8690,0,2,,-34.52
0.672000,-1648.6875,-5.0935,0,2,,-34.52
0.674000,-1648.7188,-5.3134,0,2,,-34.52
0.676000,-1648.5000,-5.5265,0,2,,-34.52
0.678000,-1648.5625,-5.7316,0,2,,-34.52
0.680000,-1648.7500,-5.9293,0,2,,-34.52
0.682000,-1648.6250,-6.1211,0,2,,-34.52
0.684000,-1648.6875,-6.3095,0,2,,-34.52
0.686000,-1648.7188,-6.4967,0,2,,-34.52
0.688000,-1648.6250,-6.6847,0,2,,-34.52
0.690000,-1648.5937,-6.8743,0,2,,-34.52
0.692000,-1648.6562,-7.0654,0,2,,-34.52
0.694000,-1648.5000,-7.2576,0,2,,-34.52
0.696000,-1648.5625,-7.4502,0,2,,-34.52
0.698000,-1648.5625,-7.6426,0,2,,-34.52
0.700000,-1648.5937,-7.8349,0,2,,-34.52
0.702000,-1648.5625,-8.0272,0,2,,-34.52
0.704000,-1648.6562,-8.2194,0,2,,-34.52
0.706000,-1648.7188,-8.4112,0,2,,-34.52
0.708000,-1648.6875,-8.6015,0,2,,-34.52
0.710000,-1648.6562,-8.7891,0,2,,-34.52
0.712000,-1648.6562,-8.9724,0,2,,-34.52
0.714000,-1648.5625,-9.1506,0,2,,-34.52
0.716000,-1648.6250,-9.3236,0,2,,-34.52
0.718000,-1648.5000,-9.4925,0,2,,-34.52
0.720000,-1648.6562,-9.6588,0,2,,-34.52
0.722000,-1648.6250,-9.8246,0,2,,-34.52
0.724000,-1648.6250,-9.9916,0,2,,-34.52
0.726000,-1648.6562,-10.1608,0,2,,-34.52
0.728000,-1648.7188,-10.3318,0,2,,-34.52
0.730000,-1648.6250,-10.5037,0,2,,-34.52
0.732000,-1648.6562,-10.6745,0,2,,-34.52
0.734000,-1648.5625,-10.8425,0,2,,-34.52
0.736000,-1648.5312,-11.0062,0,2,,-34.52
0.738000,-1648.6562,-11.1651,0,2,,-34.52
0.740000,-1648.5625,-11.3195,0,2,,-34.52
0.742000,-1648.6875,-11.4704,0,2,,-34.52
0.744000,-1648.7188,-11.6192,0,2,,-34.52
0.746000,-1648.5937,-11.7672,0,2,,-34.52
0.748000,-1648.6562,-11.9154,0,2,,-34.52
0.750000,-1648.6562,-12.0639,0,2,,-34.52
0.752000,-1648.6562,-12.2127,0,2,,-34.52
0.754000,-1648.4688,-12.3610,0,2,,-34.52
0.756000,-1648.5625,-12.5086,0,2,,-34.52
0.758000,-1648.5937,-12.6550,0,2,,-34.52
0.760000,-1648.5937,-12.8002,0,2,,-34.52
0.762000,-1648.6250,-12.9445,0,2,,-34.52
0.764000,-1648.7188,-13.0880,0,2,,-34.52
0.766000,-1648.6875,-13.2309,0,2,,-34.52
0.768000,-1648.6562,-13.3730,0,2,,-34.52
0.770000,-1648.6562,-13.5137,0,2,,-34.52
0.772000,-1648.6562,-13.6526,0,2,,-34.52
0.774000,-1648.5312,-13.7888,0,2,,-34.52
0.776000,-1648.6250,-13.9221,0,2,,-34.52
0.778000,-1648.5937,-14.0524,0,2,,-34.52
0.780000,-1648.5937,-14.1798,0,2,,-34.52
0.782000,-1648.7188,-14.3048,0,2,,-34.52
0.784000,-1648.7500,-14.4281,0,2,,-34.52
0.786000,-1648.6562,-14.5501,0,2,,-34.52
0.788000,-1648.7188,-14.6712,0,2,,-34.52
0.790000,-1648.6250,-14.7914,0,2,,-34.52
0.792000,-1648.5937,-14.9103,0,2,,-34.52
0.794000,-1648.5312,-15.0273,0,2,,-34.52
0.796000,-1648.6250,-15.1419,0,2,,-34.52
0.798000,-1648.6250,-15.2537,0,2,,-34.52
0.800000,-1648.5625,-15.3629,0,2,,-34.52
0.802000,-1648.6875,-15.4701,0,2,,-34.52
0.804000,-1648.7500,-15.5762,0,2,,-34.52
0.806000,-1648.7188,-15.6825,0,2,,-34.52
0.808000,-1648.5000,-15.7899,0,2,,-34.52
0.810000,-1648.6562,-15.8988,0,2,,-34.52
0.812000,-1648.5625,-16.0087,0,2,,-34.52
0.814000,-1648.5625,-16.1185,0,2,,-34.52
0.816000,-1648.5625,-16.2264,0,2,,-34.52
0.818000,-1648.6250,-16.3308,0,2,,-34.52
0.820000,-1648.6562,-16.4303,0,2,,-34.52
0.822000,-1648.6875,-16.5245,0,2,,-34.52
0.824000,-1648.6875,-16.6136,0,2,,-34.52
0.826000,-1648.6562,-16.6991,0,2,,-34.52
0.828000,-1648.6250,-16.7827,0,2,,-34.52
0.830000,-1648.5625,-16.8663,0,2,,-34.52
0.832000,-1648.5937,-16.9517,0,2,,-34.52
0.834000,-1648.5312,-17.0401,0,2,,-34.52
0.836000,-1648.4375,-17.1321,0,2,,-34.52
0.838000,-1648.5312,-17.2273,0,2,,-34.52
0.840000,-1648.5937,-17.3246,0,2,,-34.52
0.842000,-1648.7500,-17.4228,0,2,,-34.52
0.844000,-1648.7812,-17.5204,0,2,,-34.52
0.846000,-1648.6562,-17.6163,0,2,,-34.52
0.848000,-1648.5937,-17.7095,0,2,,-34.52
0.850000,-1648.7188,-17.7997,0,2,,-34.52
0.852000,-1648.5937,-17.8863,0,2,,-34.52
0.854000,-1648.5625,-17.9689,0,2,,-34.52
0.856000,-1648.6250,-18.0470,0,2,,-34.52
0.858000,-1648.7812,-18.1203,0,2,,-34.52
0.860000,-1648.6250,-18.1892,0,2,,-34.52
0.862000,-1648.7188,-18.2542,0,2,,-34.52
0.864000,-1648.7188,-18.3165,0,2,,-34.52
0.866000,-1648.6875,-18.3774,0,2,,-34.52
0.868000,-1648.6562,-18.4385,0,2,,-34.52
0.870000,-1648.6250,-18.5007,0,2,,-34.52
0.872000,-1648.5937,-18.5650,0,2,,-34.52
0.874000,-1648.5937,-18.6315,0,2,,-34.52
0.876000,-1648.5937,-18.6998,0,2,,-34.52
0.878000,-1648.5937,-18.7691,0,2,,-34.52
0.880000,-1648.6562,-18.8383,0,2,,-34.52
0.882000,-1648.7188,-18.9060,0,2,,-34.52
0.884000,-1648.7188,-18.9708,0,2,,-34.52
0.886000,-1648.8750,-19.0319,0,2,,-34.52
0.888000,-1648.5937,-19.0887,0,2,,-34.52
0.890000,-1648.6250,-19.1411,0,2,,-34.52
0.892000,-1648.5625,-19.1893,0,2,,-34.52
0.894000,-1648.7188,-19.2339,0,2,,-34.52
0.896000,-1648.5937,-19.2756,0,2,,-34.52
0.898000,-1648.6250,-19.3152,0,2,,-34.52
0.900000,-1648.5937,-19.3536,0,2,,-34.52
0.902000,-1648.6562,-19.3918,0,2,,-34.52
0.904000,-1648.7188,-19.4305,0,2,,-34.52
0.906000,-1648.6562,-19.4703,0,2,,-34.52
0.908000,-1648.5937,-19.5117,0,2,,-34.52
0.910000,-1648.6250,-19.5549,0,2,,-34.52
0.912000,-1648.5312,-19.5997,0,2,,-34.52
0.914000,-1648.5625,-19.6455,0,2,,-34.52
0.916000,-1648.5000,-19.6914,0,2,,-34.52
0.918000,-1648.5937,-19.7361,0,2,,-34.52
0.920000,-1648.7500,-19.7785,0,2,,-34.52
0.922000,-1648.7500,-19.8177,0,2,,-34.52
0.924000,-1648.5937,-19.8535,0,2,,-34.52
0.926000,-1648.6875,-19.8864,0,2,,-34.52
0.928000,-1648.6562,-19.9172,0,2,,-34.52
0.930000,-1648.5937,-19.9473,0,2,,-34.52
0.932000,-1648.5625,-19.9777,0,2,,-34.52
0.934000,-1648.5937,-20.0091,0,2,,-34.52
0.936000,-1648.5937,-20.0415,0,2,,-34.52
0.938000,-1648.5625,-20.0744,0,2,,-34.52
0.940000,-1648.6875,-20.1067,0,2,,-34.52
0.942000,-1648.6875,-20.1371,0,2,,-34.52
0.944000,-1648.8438,-20.1644,0,2,,-34.52
0.946000,-1648.6562,-20.1882,0,2,,-34.52
0.948000,-1648.6562,-20.2083,0,2,,-34.52
0.950000,-1648.6250,-20.2254,0,2,,-34.52
0.952000,-1648.4375,-20.2403,0,2,,-34.52
0.954000,-1648.6250,-20.2536,0,2,,-34.52
0.956000,-1648.6250,-20.2660,0,2,,-34.52
0.958000,-1648.8125,-20.2779,0,2,,-34.52
0.960000,-1648.5000,-20.2901,0,2,,-34.52
0.962000,-1648.6875,-20.3030,0,2,,-34.52
0.964000,-1648.6875,-20.3173,0,2,,-34.52
0.966000,-1648.6562,-20.3333,0,2,,-34.52
0.968000,-1648.6250,-20.3508,0,2,,-34.52
0.970000,-1648.5312,-20.3692,0,2,,-34.52
0.972000,-1648.5625,-20.3874,0,2,,-34.52
0.974000,-1648.7188,-20.4038,0,2,,-34.52
0.976000,-1648.6250,-20.4173,0,2,,-34.52
0.978000,-1648.6875,-20.4271,0,2,,-34.52
0.980000,-1648.7500,-20.4331,0,2,,-34.52
0.982000,-1648.6875,-20.4361,0,2,,-34.52
0.984000,-1648.6875,-20.4371,0,2,,-34.52
0.986000,-1648.6250,-20.4375,0,2,,-34.52
0.988000,-1648.6250,-20.4378,0,2,,-34.52
0.990000,-1648.5937,-20.4383,0,2,,-34.52
0.992000,-1648.6875,-20.4385,0,2,,-34.52
0.994000,-1648.5937,-20.4378,0,2,,-34.52
0.996000,-1648.6250,-20.4354,0,2,,-34.52
0.998000,-1648.7500,-20.4310,0,2,,-34.52
1.000000,-1648.6250,-20.4247,0,2,,-34.52
1.002000,-1648.7188,-20.4173,0,2,,-34.52
1.004000,-1648.6562,-20.4097,0,2,,-34.52
1.006000,-1648.7188,-20.4028,0,2,,-34.52
1.008000,-1648.5937,-20.3972,0,2,,-34.52
1.010000,-1648.5312,-20.3928,0,2,,-34.52
1.012000,-1648.5937,-20.3889,0,2,,-34.52
1.014000,-1648.6875,-20.3841,0,2,,-34.52
1.016000,-1648.6562,-20.3769,0,2,,-34.52
1.018000,-1648.6875,-20.3660,0,2,,-34.52
1.020000,-1648.7188,-20.3508,0,2,,-34.52
1.022000,-1648.7500,-20.3319,0,2,,-34.52
1.024000,-1648.6562,-20.3102,0,2,,-34.52
1.026000,-1648.6250,-20.2873,0,2,,-34.52
1.028000,-1648.5937,-20.2648,0,2,,-34.52
1.030000,-1648.5937,-20.2438,0,2,,-34.52
1.032000,-1648.5625,-20.2246,0,2,,-34.52
1.034000,-1648.5937,-20.2067,0,2,,-34.52
1.036000,-1648.5937,-20.1893,0,2,,-34.52
1.038000,-1648.6562,-20.1710,0,2,,-34.52
1.040000,-1648.7812,-20.1507,0,2,,-34.52
1.042000,-1648.6875,-20.1279,0,2,,-34.52
1.044000,-1648.6250,-20.1028,0,2,,-34.52
1.046000,-1648.6562,-20.0760,0,2,,-34.52
1.048000,-1648.5312,-20.0481,0,2,,-34.52
1.050000,-1648.5625,-20.0197,0,2,,-34.52
1.052000,-1648.5000,-19.9908,0,2,,-34.52
1.054000,-1648.6562,-19.9610,0,2,,-34.52
1.056000,-1648.6250,-19.9297,0,2,,-34.52
1.058000,-1648.5937,-19.8966,0,2,,-34.52
1.060000,-1648.7188,-19.8619,0,2,,-34.52
1.062000,-1648.6875,-19.8263,0,2,,-34.52
1.064000,-1648.5312,-19.7910,0,2,,-34.52
1.066000,-1648.5312,-19.7574,0,2,,-34.52
1.068000,-1648.5625,-19.7263,0,2,,-34.52
1.070000,-1648.5625,-19.6978,0,2,,-34.52
1.072000,-1648.5000,-19.6715,0,2,,-34.52
1.074000,-1648.5625,-19.6460,0,2,,-34.52
1.076000,-1648.6250,-19.6200,0,2,,-34.52
1.078000,-1648.7188,-19.5922,0,2,,-34.52
1.080000,-1648.6875,-19.5620,0,2,,-34.52
1.082000,-1648.6562,-19.5298,0,2,,-34.52
1.084000,-1648.6562,-19.4964,0,2,,-34.52
1.086000,-1648.6562,-19.4630,0,2,,-34.52
1.088000,-1648.5000,-19.4304,0,2,,-34.52
1.090000,-1648.5937,-19.3987,0,2,,-34.52
1.092000,-1648.6250,-19.3674,0,2,,-34.52
1.094000,-1648.6875,-19.3349,0,2,,-34.52
1.096000,-1648.5937,-19.2995,0,2,,-34.52
1.098000,-1648.7188,-19.2598,0,2,,-34.52
1.100000,-1648.8438,-19.2149,0,2,,-34.52
1.102000,-1648.7500,-19.1653,0,2,,-34.52
1.104000,-1648.6250,-19.1125,0,2,,-34.52
1.106000,-1648.5625,-19.0586,0,2,,-34.52
1.108000,-1648.6562,-19.0058,0,2,,-34.52
1.110000,-1648.5312,-18.9557,0,2,,-34.52
1.112000,-1648.5312,-18.9092,0,2,,-34.52
1.114000,-1648.6250,-18.8657,0,2,,-34.52
1.116000,-1648.7188,-18.8243,0,2,,-34.52
1.118000,-1648.7188,-18.7833,0,2,,-34.52
1.120000,-1648.7188,-18.7414,0,2,,-34.52
1.122000,-1648.6562,-18.6977,0,2,,-34.52
1.124000,-1648.6875,-18.6516,0,2,,-34.52
1.126000,-1648.6250,-18.6032,0,2,,-34.52
1.128000,-1648.7188,-18.5527,0,2,,-34.52
1.130000,-1648.5625,-18.5004,0,2,,-34.52
1.132000,-1648.5937,-18.4465,0,2,,-34.52
1.134000,-1648.6562,-18.3912,0,2,,-34.52
1.136000,-1648.6562,-18.3344,0,2,,-34.52
1.138000,-1648.7188,-18.2763,0,2,,-34.52
1.140000,-1648.7188,-18.2170,0,2,,-34.52
1.142000,-1648.6562,-18.1572,0,2,,-34.52
1.144000,-1648.6875,-18.0975,0,2,,-34.52
1.146000,-1648.6875,-18.0391,0,2,,-34.52
1.148000,-1648.5312,-17.9826,0,2,,-34.52
1.150000,-1648.5625,-17.9286,0,2,,-34.52
1.152000,-1648.5625,-17.8768,0,2,,-34.52
1.154000,-1648.6562,-17.8261,0,2,,-34.52
1.156000,-1648.6562,-17.7751,0,2,,-34.52
1.158000,-1648.8125,-17.7221,0,2,,-34.52
1.160000,-1648.7188,-17.6660,0,2,,-34.52
1.162000,-1648.6562,-17.6060,0,2,,-34.52
1.164000,-1648.6250,-17.5423,0,2,,-34.52
1.166000,-1648.7812,-17.4757,0,2,,-34.52
1.168000,-1648.5625,-17.4072,0,2,,-34.52
1.170000,-1648.5625,-17.3383,0,2,,-34.52
1.172000,-1648.5937,-17.2702,0,2,,-34.52
1.174000,-1648.5937,-17.2036,0,2,,-34.52
1.176000,-1648.6875,-17.1390,0,2,,-34.52
1.178000,-1648.6875,-17.0762,0,2,,-34.52
1.180000,-1648.7188,-17.0150,0,2,,-34.52
1.182000,-1648.6250,-16.9549,0,2,,-34.52
1.184000,-1648.6250,-16.8954,0,2,,-34.52
1.186000,-1648.7812,-16.8358,0,2,,-34.52
1.188000,-1648.5312,-16.7755,0,2,,-34.52
1.190000,-1648.5625,-16.7138,0,2,,-34.52
1.192000,-1648.6250,-16.6498,0,2,,-34.52
1.194000,-1648.6875,-16.5828,0,2,,-34.52
1.196000,-1648.6250,-16.5126,0,2,,-34.52
1.198000,-1648.7812,-16.4392,0,2,,-34.52
1.200000,-1648.7500,-16.3638,0,2,,-34.52
1.202000,-1648.6562,-16.2881,0,2,,-34.52
1.204000,-1648.6562,-16.2143,0,2,,-34.52
1.206000,-1648.5312,-16.1445,0,2,,-34.52
1.208000,-1648.6250,-16.0802,0,2,,-34.52
1.210000,-1648.5312,-16.0216,0,2,,-34.52
1.212000,-1648.6875,-15.9676,0,2,,-34.52
1.214000,-1648.5937,-15.9161,0,2,,-34.52
1.216000,-1648.8750,-15.8640,0,2,,-34.52
1.218000,-1648.7188,-15.8085,0,2,,-34.52
1.220000,-1648.7188,-15.7471,0,2,,-34.52
1.222000,-1648.7500,-15.6785,0,2,,-34.52
1.224000,-1649.0312,-15.6024,0,2,,-34.52
1.226000,-1648.4688,-15.5201,0,2,,-34.52
1.228000,-1648.6875,-15.4331,0,2,,-34.52
1.230000,-1648.5937,-15.3438,0,2,,-34.52
1.232000,-1648.6250,-15.2541,0,2,,-34.52
1.234000,-1648.6250,-15.1653,0,2,,-34.52
1.236000,-1648.8125,-15.0783,0,2,,-34.52
1.238000,-1648.5937,-14.9934,0,2,,-34.52
1.240000,-1648.6875,-14.9108,0,2,,-34.52
1.242000,-1648.6250,-14.8305,0,2,,-34.52
1.244000,-1648.7500,-14.7526,0,2,,-34.52
1.246000,-1648.5312,-14.6770,0,2,,-34.52
1.248000,-1648.5312,-14.6036,0,2,,-34.52
1.250000,-1648.5312,-14.5319,0,2,,-34.52
1.252000,-1648.5937,-14.4611,0,2,,-34.52
1.254000,-1648.7188,-14.3901,0,2,,-34.52
1.256000,-1648.6875,-14.3180,0,2,,-34.52
1.258000,-1648.6562,-14.2442,0,2,,-34.52
1.260000,-1648.7188,-14.1687,0,2,,-34.52
1.262000,-1648.6250,-14.0916,0,2,,-34.52
1.264000,-1648.6562,-14.0138,0,2,,-34.52
1.266000,-1648.6562,-13.9362,0,2,,-34.52
1.268000,-1648.5937,-13.8595,0,2,,-34.52
1.270000,-1648.5937,-13.7841,0,2,,-34.52
1.272000,-1648.6250,-13.7101,0,2,,-34.52
1.274000,-1648.5937,-13.6369,0,2,,-34.52
1.276000,-1648.6875,-13.5635,0,2,,-34.52
1.278000,-1648.7500,-13.4889,0,2,,-34.52
1.280000,-1648.8438,-13.4122,0,2,,-34.52
1.282000,-1648.6250,-13.3333,0,2,,-34.52
1.284000,-1648.6250,-13.2526,0,2,,-34.52
1.286000,-1648.7812,-13.1709,0,2,,-34.52
1.288000,-1648.5000,-13.0892,0,2,,-34.52
1.290000,-1648.6562,-13.0082,0,2,,-34.52
1.292000,-1648.6250,-12.9282,0,2,,-34.52
1.294000,-1648.5937,-12.8482,0,2,,-34.52
1.296000,-1648.6875,-12.7671,0,2,,-34.52
1.298000,-1648.7188,-12.6832,0,2,,-34.52
1.300000,-1648.8750,-12.5954,0,2,,-34.52
1.302000,-1648.6562,-12.5035,0,2,,-34.52
1.304000,-1648.6562,-12.4082,0,2,,-34.52
1.306000,-1648.5625,-12.3115,0,2,,-34.52
1.308000,-1648.4062,-12.2154,0,2,,-34.52
1.310000,-1648.5625,-12.1220,0,2,,-34.52
1.312000,-1648.5937,-12.0324,0,2,,-34.52
1.314000,-1648.6250,-11.9474,0,2,,-34.52
1.316000,-1648.6250,-11.8667,0,2,,-34.52
1.318000,-1648.6875,-11.7901,0,2,,-34.52
1.320000,-1648.6562,-11.7167,0,2,,-34.52
1.322000,-1648.5312,-11.6458,0,2,,-34.52
1.324000,-1648.6250,-11.5762,0,2,,-34.52
1.326000,-1648.5625,-11.5066,0,2,,-34.52
1.328000,-1648.5625,-11.4353,0,2,,-34.52
1.330000,-1648.7500,-11.3611,0,2,,-34.52
1.332000,-1648.6562,-11.2828,0,2,,-34.52
1.334000,-1648.6562,-11.2002,0,2,,-34.52
1.336000,-1648.6875,-11.1138,0,2,,-34.52
1.338000,-1648.6250,-11.0246,0,2,,-34.52
1.340000,-1648.6875,-10.9342,0,2,,-34.52
1.342000,-1648.6875,-10.8439,0,2,,-34.52
1.344000,-1648.6562,-10.7552,0,2,,-34.52
1.346000,-1648.5937,-10.6691,0,2,,-34.52
1.348000,-1648.5937,-10.5859,0,2,,-34.52
1.350000,-1648.5000,-10.5055,0,2,,-34.52
1.352000,-1648.6250,-10.4268,0,2,,-34.52
1.354000,-1648.5937,-10.3482,0,2,,-34.52
1.356000,-1648.7188,-10.2681,0,2,,-34.52
1.358000,-1648.9062,-10.1851,0,2,,-34.52
1.360000,-1648.5937,-10.0989,0,2,,-34.52
1.362000,-1648.6250,-10.0100,0,2,,-34.52
1.364000,-1648.5625,-9.9198,0,2,,-34.52
1.366000,-1648.5937,-9.8301,0,2,,-34.52
1.368000,-1648.5937,-9.7427,0,2,,-34.52
1.370000,-1648.5937,-9.6588,0,2,,-34.52
1.372000,-1648.7188,-9.5787,0,2,,-34.52
1.374000,-1648.4375,-9.5023,0,2,,-34.52
1.376000,-1648.7500,-9.4282,0,2,,-34.52
1.378000,-1648.6562,-9.3549,0,2,,-34.52
1.380000,-1648.8125,-9.2804,0,2,,-34.52
1.382000,-1648.6562,-9.2034,0,2,,-34.52
1.384000,-1648.6562,-9.1229,0,2,,-34.52
1.386000,-1648.6562,-9.0390,0,2,,-34.52
1.388000,-1648.6250,-8.9521,0,2,,-34.52
1.390000,-1648.6250,-8.8633,0,2,,-34.52
1.392000,-1648.5937,-8.7736,0,2,,-34.52
1.394000,-1648.6250,-8.6837,0,2,,-34.52
1.396000,-1648.7188,-8.5939,0,2,,-34.52
1.398000,-1648.6875,-8.5045,0,2,,-34.52
1.400000,-1648.7188,-8.4154,0,2,,-34.52
1.402000,-1648.6875,-8.3272,0,2,,-34.52
1.404000,-1648.6250,-8.2402,0,2,,-34.52
1.406000,-1648.5312,-8.1551,0,2,,-34.52
1.408000,-1648.4688,-8.0721,0,2,,-34.52
1.410000,-1648.5937,-7.9911,0,2,,-34.52
1.412000,-1648.6250,-7.9112,0,2,,-34.52
1.414000,-1648.7188,-7.8314,0,2,,-34.52
1.416000,-1648.7500,-7.7508,0,2,,-34.52
1.418000,-1648.7188,-7.6690,0,2,,-34.52
1.420000,-1648.6250,-7.5866,0,2,,-34.52
1.422000,-1648.5937,-7.5042,0,2,,-34.52
1.424000,-1648.6250,-7.4229,0,2,,-34.52
1.426000,-1648.5312,-7.3431,0,2,,-34.52
1.428000,-1648.5937,-7.2647,0,2,,-34.52
1.430000,-1648.6875,-7.1866,0,2,,-34.52
1.432000,-1648.6562,-7.1076,0,2,,-34.52
1.434000,-1648.6875,-7.0264,0,2,,-34.52
1.436000,-1648.6875,-6.9422,0,2,,-34.52
1.438000,-1648.7188,-6.8549,0,2,,-34.52
1.440000,-1648.6562,-6.7652,0,2,,-34.52
1.442000,-1648.6875,-6.6746,0,2,,-34.52
1.444000,-1648.6250,-6.5850,0,2,,-34.52
1.446000,-1648.4375,-6.4980,0,2,,-34.52
1.448000,-1648.5625,-6.4148,0,2,,-34.52
1.450000,-1648.5937,-6.3353,0,2,,-34.52
1.452000,-1648.6875,-6.2589,0,2,,-34.52
1.454000,-1648.6875,-6.1842,0,2,,-34.52
1.456000,-1648.6562,-6.1097,0,2,,-34.52
1.458000,-1648.7188,-6.0342,0,2,,-34.52
1.460000,-1648.6562,-5.9569,0,2,,-34.52
1.462000,-1648.6562,-5.8777,0,2,,-34.52
1.464000,-1648.5312,-5.7969,0,2,,-34.52
1.466000,-1648.7500,-5.7149,0,2,,-34.52
1.468000,-1648.5000,-5.6322,0,2,,-34.52
1.470000,-1648.6250,-5.5493,0,2,,-34.52
1.472000,-1648.6562,-5.4663,0,2,,-34.52
1.474000,-1648.6250,-5.3829,0,2,,-34.52
1.476000,-1648.6875,-5.2990,0,2,,-34.52
1.478000,-1648.7500,-5.2147,0,2,,-34.52
1.480000,-1648.6562,-5.1304,0,2,,-34.52
1.482000,-1648.5625,-5.0470,0,2,,-34.52
1.484000,-1648.5937,-4.9653,0,2,,-34.52
1.486000,-1648.5000,-4.8863,0,2,,-34.52
1.488000,-1648.6250,-4.8103,0,2,,-34.52
1.490000,-1648.5625,-4.7372,0,2,,-34.52
1.492000,-1648.6875,-4.6663,0,2,,-34.52
1.494000,-1648.6875,-4.5966,0,2,,-34.52
1.496000,-1648.6875,-4.5268,0,2,,-34.52
1.498000,-1648.6875,-4.4562,0,2,,-34.52
1.500000,-1648.6562,-4.3840,0,2,,-34.52
1.502000,-1648.7188,-4.3101,0,2,,-34.52
1.504000,-1648.5937,-4.2342,0,2,,-34.52
1.506000,-1648.5625,-4.1567,0,2,,-34.52
1.508000,-1648.5937,-4.0774,0,2,,-34.52
1.510000,-1648.7812,-3.9966,0,2,,-34.52
1.512000,-1648.6250,-3.9145,0,2,,-34.52
1.514000,-1648.6562,-3.8312,0,2,,-34.52
1.516000,-1648.7188,-3.7474,0,2,,-34.52
1.518000,-1648.6562,-3.6637,0,2,,-34.52
1.520000,-1648.6250,-3.5808,0,2,,-34.52
1.522000,-1648.6250,-3.4993,0,2,,-34.52
1.524000,-1648.5625,-3.4195,0,2,,-34.52
1.526000,-1648.4688,-3.3412,0,2,,-34.52
1.528000,-1648.5937,-3.2638,0,2,,-34.52
1.530000,-1648.6562,-3.1866,0,2,,-34.52
1.532000,-1648.6250,-3.1091,0,2,,-34.52
1.534000,-1648.6875,-3.0311,0,2,,-34.52
1.536000,-1648.6562,-2.9534,0,2,,-34.52
1.538000,-1648.6250,-2.8771,0,2,,-34.52
1.540000,-1648.5312,-2.8038,0,2,,-34.52
1.542000,-1648.5625,-2.7345,0,2,,-34.52
1.544000,-1648.5312,-2.6694,0,2,,-34.52
1.546000,-1648.5937,-2.6077,0,2,,-34.52
1.548000,-1648.5625,-2.5476,0,2,,-34.52
1.550000,-1648.6562,-2.4868,0,2,,-34.52
1.552000,-1648.7188,-2.4229,0,2,,-34.52
1.554000,-1648.7188,-2.3544,0,2,,-34.52
1.556000,-1648.7500,-2.2806,0,2,,-34.52
1.558000,-1648.5937,-2.2025,0,2,,-34.52
1.560000,-1648.6562,-2.1215,0,2,,-34.52
1.562000,-1648.5625,-2.0401,0,2,,-34.52
1.564000,-1648.5312,-1.9604,0,2,,-34.52
1.566000,-1648.5937,-1.8842,0,2,,-34.52
1.568000,-1648.6250,-1.8124,0,2,,-34.52
1.570000,-1648.5937,-1.7451,0,2,,-34.52
1.572000,-1648.5625,-1.6816,0,2,,-34.52
1.574000,-1648.7188,-1.6209,0,2,,-34.52
1.576000,-1648.7188,-1.5618,0,2,,-34.52
1.578000,-1648.6562,-1.5030,0,2,,-34.52
1.580000,-1648.6875,-1.4438,0,2,,-34.52
1.582000,-1648.5937,-1.3837,0,2,,-34.52
1.584000,-1648.5625,-1.3222,0,2,,-34.52
1.586000,-1648.7188,-1.2591,0,2,,-34.52
1.588000,-1648.6250,-1.1940,0,2,,-34.52
1.590000,-1648.5937,-1.1264,0,2,,-34.52
1.592000,-1648.8125,-1.0559,0,2,,-34.52
1.594000,-1648.6875,-0.9826,0,2,,-34.52
1.596000,-1648.7188,-0.9067,0,2,,-34.52
1.598000,-1648.6562,-0.8291,0,2,,-34.52
1.600000,-1648.6562,-0.7512,0,2,,-34.52
1.602000,-1648.5312,-0.6742,0,2,,-34.52
1.604000,-1648.5625,-0.5992,0,2,,-34.52
1.606000,-1648.5625,-0.5268,0,2,,-34.52
1.608000,-1648.5937,-0.4571,0,2,,-34.52
1.610000,-1648.5625,-0.3894,0,2,,-34.52
1.612000,-1648.6875,-0.3232,0,2,,-34.52
1.614000,-1648.7188,-0.2579,0,2,,-34.52
1.616000,-1648.4688,-0.1933,0,2,,-34.52
1.618000,-1648.6875,-0.1296,0,2,,-34.52
1.620000,-1648.6875,-0.0674,0,2,,-34.52
1.622000,-1648.4688,-0.0075,0,2,,-34.52
1.624000,-1648.5000,0.0496,0,2,,-34.52
1.626000,-1648.5937,0.1041,0,2,,-34.52
1.628000,-1648.5937,0.1567,0,2,,-34.52
1.630000,-1648.7188,0.2087,0,2,,-34.52
1.632000,-1648.5625,0.2616,0,2,,-34.52
1.634000,-1648.7188,0.3170,0,2,,-34.52
1.636000,-1648.6875,0.3757,0,2,,-34.52
1.638000,-1648.7812,0.4380,0,2,,-34.52
1.640000,-1648.5937,0.5030,0,2,,-34.52
1.642000,-1648.5625,0.5696,0,2,,-34.52
1.644000,-1648.5625,0.6362,0,2,,-34.52
1.646000,-1648.4688,0.7019,0,2,,-34.52
1.648000,-1648.6250,0.7663,0,2,,-34.52
1.650000,-1648.6562,0.8296,0,2,,-34.52
1.652000,-1648.7188,0.8924,0,2,,-34.52
1.654000,-1648.6250,0.9551,0,2,,-34.52
1.656000,-1648.6250,1.0175,0,2,,-34.52
1.658000,-1648.6562,1.0792,0,2,,-34.52
1.660000,-1648.5625,1.1392,0,2,,-34.52
1.662000,-1648.4062,1.1968,0,2,,-34.52
1.664000,-1648.5625,1.2517,0,2,,-34.52
1.666000,-1648.5937,1.3044,0,2,,-34.52
1.668000,-1648.5937,1.3559,0,2,,-34.52
1.670000,-1648.5312,1.4074,0,2,,-34.52
1.672000,-1648.7500,1.4601,0,2,,-34.52
1.674000,-1648.7188,1.5143,0,2,,-34.52
1.676000,-1648.5937,1.5693,0,2,,-34.52
1.678000,-1648.6250,1.6238,0,2,,-34.52
1.680000,-1648.5937,1.6763,0,2,,-34.52
1.682000,-1648.5312,1.7255,0,2,,-34.52
1.684000,-1648.4062,1.7714,0,2,,-34.52
1.686000,-1648.5937,1.8153,0,2,,-34.52
1.688000,-1648.6250,1.8594,0,2,,-34.52
1.690000,-1648.7188,1.9062,0,2,,-34.52
1.692000,-1648.9062,1.9575,0,2,,-34.52
1.694000,-1648.6562,2.0135,0,2,,-34.52
1.696000,-1648.5937,2.0727,0,2,,-34.52
1.698000,-1648.6250,2.1324,0,2,,-34.52
1.700000,-1648.4688,2.1893,0,2,,-34.52
1.702000,-1648.5625,2.2413,0,2,,-34.52
1.704000,-1648.5312,2.2876,0,2,,-34.52
1.706000,-1648.6250,2.3290,0,2,,-34.52
1.708000,-1648.6250,2.3678,0,2,,-34.52
1.710000,-1648.7188,2.4071,0,2,,-34.52
1.712000,-1648.7188,2.4493,0,2,,-34.52
1.714000,-1648.7188,2.4960,0,2,,-34.52
1.716000,-1648.6875,2.5472,0,2,,-34.52
1.718000,-1648.6875,2.6016,0,2,,-34.52
1.720000,-1648.5312,2.6571,0,2,,-34.52
1.722000,-1648.4688,2.7112,0,2,,-34.52
1.724000,-1648.5937,2.7625,0,2,,-34.52
1.726000,-1648.6250,2.8102,0,2,,-34.52
1.728000,-1648.6562,2.8547,0,2,,-34.52
1.730000,-1648.6562,2.8972,0,2,,-34.52
1.732000,-1648.6875,2.9390,0,2,,-34.52
1.734000,-1648.6875,2.9810,0,2,,-34.52
1.736000,-1648.6250,3.0237,0,2,,-34.52
1.738000,-1648.6562,3.0673,0,2,,-34.52
1.740000,-1648.5625,3.1112,0,2,,-34.52
1.742000,-1648.5937,3.1549,0,2,,-34.52
1.744000,-1648.6250,3.1983,0,2,,-34.52
1.746000,-1648.5312,3.2411,0,2,,-34.52
1.748000,-1648.6875,3.2838,0,2,,-34.52
1.750000,-1648.6875,3.3268,0,2,,-34.52
1.752000,-1648.7500,3.3702,0,2,,-34.52
1.754000,-1648.5937,3.4140,0,2,,-34.52
1.756000,-1648.6250,3.4581,0,2,,-34.52
1.758000,-1648.5625,3.5018,0,2,,-34.52
1.760000,-1648.6562,3.5444,0,2,,-34.52
1.762000,-1648.5937,3.5855,0,2,,-34.52
1.764000,-1648.5937,3.6246,0,2,,-34.52
1.766000,-1648.6250,3.6615,0,2,,-34.52
1.768000,-1648.5937,3.6963,0,2,,-34.52
1.770000,-1648.6562,3.7291,0,2,,-34.52
1.772000,-1648.7500,3.7605,0,2,,-34.52
1.774000,-1648.5937,3.7910,0,2,,-34.52
1.776000,-1648.8125,3.8210,0,2,,-34.52
1.778000,-1648.5937,3.8513,0,2,,-34.52
1.780000,-1648.5312,3.8823,0,2,,-34.52
1.782000,-1648.7188,3.9148,0,2,,-34.52
1.784000,-1648.6250,3.9497,0,2,,-34.52
1.786000,-1648.6875,3.9874,0,2,,-34.52
1.788000,-1648.6875,4.0283,0,2,,-34.52
1.790000,-1648.7500,4.0720,0,2,,-34.52
1.792000,-1648.7188,4.1170,0,2,,-34.52
1.794000,-1648.6562,4.1616,0,2,,-34.52
1.796000,-1648.6250,4.2036,0,2,,-34.52
1.798000,-1648.6250,4.2410,0,2,,-34.52
1.800000,-1648.5312,4.2730,0,2,,-34.52
1.802000,-1648.6250,4.2998,0,2,,-34.52
1.804000,-1648.5937,4.3232,0,2,,-34.52
1.806000,-1648.6875,4.3458,0,2,,-34.52
1.808000,-1648.6875,4.3706,0,2,,-34.52
1.810000,-1648.7500,4.4003,0,2,,-34.52
1.812000,-1648.7812,4.4361,0,2,,-34.52
1.814000,-1648.6875,4.4778,0,2,,-34.52
1.816000,-1648.6562,4.5237,0,2,,-34.52
1.818000,-1648.5937,4.5711,0,2,,-34.52
1.820000,-1648.4375,4.6170,0,2,,-34.52
1.822000,-1648.5625,4.6593,0,2,,-34.52
1.824000,-1648.6562,4.6964,0,2,,-34.52
1.826000,-1648.6250,4.7281,0,2,,-34.52
1.828000,-1648.5937,4.7551,0,2,,-34.52
1.830000,-1648.6875,4.7783,0,2,,-34.52
1.832000,-1648.6250,4.7991,0,2,,-34.52
1.834000,-1648.5937,4.8185,0,2,,-34.52
1.836000,-1648.5625,4.8375,0,2,,-34.52
1.838000,-1648.7500,4.8568,0,2,,-34.52
1.840000,-1648.5937,4.8768,0,2,,-34.52
1.842000,-1648.6250,4.8976,0,2,,-34.52
1.844000,-1648.5625,4.9195,0,2,,-34.52
1.846000,-1648.6250,4.9424,0,2,,-34.52
1.848000,-1648.7812,4.9664,0,2,,-34.52
1.850000,-1648.7188,4.9914,0,2,,-34.52
1.852000,-1648.7188,5.0170,0,2,,-34.52
1.854000,-1648.6250,5.0427,0,2,,-34.52
1.856000,-1648.6250,5.0681,0,2,,-34.52
1.858000,-1648.5625,5.0930,0,2,,-34.52
1.860000,-1648.6875,5.1177,0,2,,-34.52
1.862000,-1648.6250,5.1428,0,2,,-34.52
1.864000,-1648.6875,5.1691,0,2,,-34.52
1.866000,-1648.6250,5.1971,0,2,,-34.52
1.868000,-1648.7188,5.2268,0,2,,-34.52
1.870000,-1648.7188,5.2577,0,2,,-34.52
1.872000,-1648.5937,5.2885,0,2,,-34.52
1.874000,-1648.5937,5.3178,0,2,,-34.52
1.876000,-1648.5937,5.3444,0,2,,-34.52
1.878000,-1648.5937,5.3674,0,2,,-34.52
1.880000,-1648.5937,5.3868,0,2,,-34.52
1.882000,-1648.5000,5.4033,0,2,,-34.52
1.884000,-1648.6562,5.4180,0,2,,-34.52
1.886000,-1648.7188,5.4321,0,2,,-34.52
1.888000,-1648.7500,5.4466,0,2,,-34.52
1.890000,-1648.5937,5.4617,0,2,,-34.52
1.892000,-1648.6250,5.4772,0,2,,-34.52
1.894000,-1648.6562,5.4923,0,2,,-34.52
1.896000,-1648.6562,5.5066,0,2,,-34.52
1.898000,-1648.5625,5.5199,0,2,,-34.52
1.900000,-1648.5937,5.5326,0,2,,-34.52
1.902000,-1648.6562,5.5457,0,2,,-34.52
1.904000,-1648.7812,5.5605,0,2,,-34.52
1.906000,-1648.6250,5.5780,0,2,,-34.52
1.908000,-1648.7188,5.5987,0,2,,-34.52
1.910000,-1648.6875,5.6223,0,2,,-34.52
1.912000,-1648.5625,5.6479,0,2,,-34.52
1.914000,-1648.7812,5.6739,0,2,,-34.52
1.916000,-1648.5937,5.6985,0,2,,-34.52
1.918000,-1648.5312,5.7203,0,2,,-34.52
1.920000,-1648.5000,5.7386,0,2,,-34.52
1.922000,-1648.5937,5.7534,0,2,,-34.52
1.924000,-1648.5937,5.7658,0,2,,-34.52
1.926000,-1648.6875,5.7770,0,2,,-34.52
1.928000,-1648.7812,5.7880,0,2,,-34.52
1.930000,-1648.6562,5.7991,0,2,,-34.52
1.932000,-1648.6562,5.8096,0,2,,-34.52
1.934000,-1648.5937,5.8184,0,2,,-34.52
1.936000,-1648.5000,5.8244,0,2,,-34.52
1.938000,-1648.5312,5.8274,0,2,,-34.52
1.940000,-1648.6250,5.8286,0,2,,-34.52
1.942000,-1648.7500,5.8300,0,2,,-34.52
1.944000,-1648.6562,5.8344,0,2,,-34.52
1.946000,-1648.7500,5.8438,0,2,,-34.52
1.948000,-1648.7188,5.8595,0,2,,-34.52
1.950000,-1648.6875,5.8806,0,2,,-34.52
1.952000,-1648.6875,5.9050,0,2,,-34.52
1.954000,-1648.6250,5.9295,0,2,,-34.52
1.956000,-1648.5000,5.9507,0,2,,-34.52
1.958000,-1648.5000,5.9659,0,2,,-34.52
1.960000,-1648.5937,5.9741,0,2,,-34.52
1.962000,-1648.6250,5.9758,0,2,,-34.52
1.964000,-1648.6875,5.9730,0,2,,-34.52
1.966000,-1648.6250,5.9687,0,2,,-34.52
1.968000,-1648.7188,5.9658,0,2,,-34.52
1.970000,-1648.6562,5.9667,0,2,,-34.52
1.972000,-1648.7188,5.9724,0,2,,-34.52
1.974000,-1648.6875,5.9827,0,2,,-34.52
1.976000,-1648.5625,5.9964,0,2,,-34.52
1.978000,-1648.5937,6.0115,0,2,,-34.52
1.980000,-1648.5625,6.0259,0,2,,-34.52
1.982000,-1648.5625,6.0381,0,2,,-34.52
1.984000,-1648.6562,6.0473,0,2,,-34.52
1.986000,-1648.7188,6.0530,0,2,,-34.52
1.988000,-1648.7188,6.0551,0,2,,-34.52
1.990000,-1648.5937,6.0539,0,2,,-34.52
1.992000,-1648.6250,6.0494,0,2,,-34.52
1.994000,-1648.5625,6.0419,0,2,,-34.52
1.996000,-1648.6875,6.0325,0,2,,-34.52
1.998000,-1648.5937,6.0223,0,2,,-34.52
2.000000,-1648.6562,6.0132,0,2,,-34.52
2.002000,-1648.6875,6.0071,0,2,,-34.52
2.004000,-1648.8125,6.0057,0,2,,-34.52
2.006000,-1648.7188,6.0098,0,2,,-34.52
2.008000,-1648.7188,6.0190,0,2,,-34.52
2.010000,-1648.7188,6.0321,0,2,,-34.52
2.012000,-1648.6562,6.0470,0,2,,-34.52
2.014000,-1648.5312,6.0614,0,2,,-34.52
2.016000,-1648.5625,6.0734,0,2,,-34.52
2.018000,-1648.7500,6.0819,0,2,,-34.52
2.020000,-1648.5625,6.0868,0,2,,-34.52
2.022000,-1648.5937,6.0885,0,2,,-34.52
2.024000,-1648.6875,6.0883,0,2,,-34.52
2.026000,-1648.6875,6.0873,0,2,,-34.52
2.028000,-1648.6562,6.0864,0,2,,-34.52
2.030000,-1648.6250,6.0862,0,2,,-34.52
2.032000,-1648.6250,6.0865,0,2,,-34.52
2.034000,-1648.5312,6.0868,0,2,,-34.52
2.036000,-1648.6875,6.0865,0,2,,-34.52
2.038000,-1648.5937,6.0850,0,2,,-34.52
2.040000,-1648.6250,6.0817,0,2,,-34.52
2.042000,-1648.5937,6.0766,0,2,,-34.52
2.044000,-1648.6250,6.0701,0,2,,-34.52
2.046000,-1648.6875,6.0630,0,2,,-34.52
2.048000,-1648.6250,6.0559,0,2,,-34.52
2.050000,-1648.7500,6.0496,0,2,,-34.52
2.052000,-1648.6875,6.0442,0,2,,-34.52
2.054000,-1648.5625,6.0397,0,2,,-34.52
2.056000,-1648.6250,6.0356,0,2,,-34.52
2.058000,-1648.5312,6.0317,0,2,,-34.52
2.060000,-1648.6250,6.0279,0,2,,-34.52
2.062000,-1648.6875,6.0245,0,2,,-34.52
2.064000,-1648.8125,6.0219,0,2,,-34.52
2.066000,-1648.6250,6.0198,0,2,,-34.52
2.068000,-1648.6250,6.0180,0,2,,-34.52
2.070000,-1648.6562,6.0153,0,2,,-34.52
2.072000,-1648.6562,6.0108,0,2,,-34.52
2.074000,-1648.5000,6.0036,0,2,,-34.52
2.076000,-1648.6250,5.9937,0,2,,-34.52
2.078000,-1648.6250,5.9815,0,2,,-34.52
2.080000,-1648.6562,5.9685,0,2,,-34.52
2.082000,-1648.6562,5.9562,0,2,,-34.52
2.084000,-1648.7500,5.9460,0,2,,-34.52
2.086000,-1648.7188,5.9384,0,2,,-34.52
2.088000,-1648.7188,5.9331,0,2,,-34.52
2.090000,-1648.6562,5.9288,0,2,,-34.52
2.092000,-1648.5625,5.9240,0,2,,-34.52
2.094000,-1648.5937,5.9171,0,2,,-34.52
2.096000,-1648.5625,5.9075,0,2,,-34.52
2.098000,-1648.6250,5.8956,0,2,,-34.52
2.100000,-1648.6562,5.8828,0,2,,-34.52
2.102000,-1648.8438,5.8704,0,2,,-34.52
2.104000,-1648.7188,5.8597,0,2,,-34.52
2.106000,-1648.6875,5.8510,0,2,,-34.52
2.108000,-1648.6875,5.8436,0,2,,-34.52
2.110000,-1648.6250,5.8362,0,2,,-34.52
2.112000,-1648.5312,5.8277,0,2,,-34.52
2.114000,-1648.5312,5.8174,0,2,,-34.52
2.116000,-1648.7812,5.8054,0,2,,-34.52
2.118000,-1648.6562,5.7929,0,2,,-34.52
2.120000,-1648.6562,5.7813,0,2,,-34.52
2.122000,-1648.7188,5.7716,0,2,,-34.52
2.124000,-1648.7188,5.7646,0,2,,-34.52
2.126000,-1648.6875,5.7600,0,2,,-34.52
2.128000,-1648.6562,5.7565,0,2,,-34.52
2.130000,-1648.6250,5.7526,0,2,,-34.52
2.132000,-1648.5312,5.7468,0,2,,-34.52
2.134000,-1648.5625,5.7382,0,2,,-34.52
2.136000,-1648.5937,5.7265,0,2,,-34.52
2.138000,-1648.6250,5.7126,0,2,,-34.52
2.140000,-1648.7188,5.6975,0,2,,-34.52
2.142000,-1648.7188,5.6824,0,2,,-34.52
2.144000,-1648.6562,5.6679,0,2,,-34.52
2.146000,-1648.6562,5.6538,0,2,,-34.52
2.148000,-1648.5937,5.6395,0,2,,-34.52
2.150000,-1648.6250,5.6240,0,2,,-34.52
2.152000,-1648.5937,5.6066,0,2,,-34.52
2.154000,-1648.5937,5.5872,0,2,,-34.52
2.156000,-1648.6875,5.5661,0,2,,-34.52
2.158000,-1648.5937,5.5445,0,2,,-34.52
2.160000,-1648.6875,5.5237,0,2,,-34.52
2.162000,-1648.8438,5.5048,0,2,,-34.52
2.164000,-1648.7188,5.4884,0,2,,-34.52
2.166000,-1648.6250,5.4744,0,2,,-34.52
2.168000,-1648.6250,5.4620,0,2,,-34.52
2.170000,-1648.7188,5.4504,0,2,,-34.52
2.172000,-1648.5937,5.4385,0,2,,-34.52
2.174000,-1648.5625,5.4259,0,2,,-34.52
2.176000,-1648.7188,5.4125,0,2,,-34.52
2.178000,-1648.6562,5.3990,0,2,,-34.52
2.180000,-1648.6562,5.3857,0,2,,-34.52
2.182000,-1648.7500,5.3734,0,2,,-34.52
2.184000,-1648.7500,5.3621,0,2,,-34.52
2.186000,-1648.5625,5.3514,0,2,,-34.52
2.188000,-1648.5937,5.3409,0,2,,-34.52
2.190000,-1648.5937,5.3299,0,2,,-34.52
2.192000,-1648.6562,5.3178,0,2,,-34.52
2.194000,-1648.5625,5.3045,0,2,,-34.52
2.196000,-1648.6250,5.2903,0,2,,-34.52
2.198000,-1648.5937,5.2753,0,2,,-34.52
2.200000,-1648.6250,5.2600,0,2,,-34.52
2.202000,-1648.7188,5.2443,0,2,,-34.52
2.204000,-1648.6875,5.2281,0,2,,-34.52
2.206000,-1648.6562,5.2105,0,2,,-34.52
2.208000,-1648.4688,5.1908,0,2,,-34.52
2.210000,-1648.6250,5.1685,0,2,,-34.52
2.212000,-1648.5312,5.1437,0,2,,-34.52
2.214000,-1648.5625,5.1176,0,2,,-34.52
2.216000,-1648.7500,5.0916,0,2,,-34.52
2.218000,-1648.6250,5.0677,0,2,,-34.52
2.220000,-1648.7188,5.0472,0,2,,-34.52
2.222000,-1648.7188,5.0305,0,2,,-34.52
2.224000,-1648.5937,5.0170,0,2,,-34.52
2.226000,-1648.6875,5.0052,0,2,,-34.52
2.228000,-1648.6562,4.9929,0,2,,-34.52
2.230000,-1648.5625,4.9780,0,2,,-34.52
2.232000,-1648.5000,4.9592,0,2,,-34.52
2.234000,-1648.5625,4.9362,0,2,,-34.52
2.236000,-1648.5937,4.9101,0,2,,-34.52
2.238000,-1648.7500,4.8828,0,2,,-34.52
2.240000,-1648.6562,4.8568,0,2,,-34.52
2.242000,-1648.7812,4.8336,0,2,,-34.52
2.244000,-1648.6875,4.8140,0,2,,-34.52
2.246000,-1648.5625,4.7973,0,2,,-34.52
2.248000,-1648.7188,4.7818,0,2,,-34.52
2.250000,-1648.5312,4.7655,0,2,,-34.52
2.252000,-1648.5937,4.7466,0,2,,-34.52
2.254000,-1648.5000,4.7243,0,2,,-34.52
2.256000,-1648.6562,4.6989,0,2,,-34.52
2.258000,-1648.7188,4.6717,0,2,,-34.52
2.260000,-1648.6875,4.6447,0,2,,-34.52
2.262000,-1648.8125,4.6195,0,2,,-34.52
2.264000,-1648.6250,4.5971,0,2,,-34.52
2.266000,-1648.6562,4.5779,0,2,,-34.52
2.268000,-1648.5625,4.5611,0,2,,-34.52
2.270000,-1648.6562,4.5461,0,2,,-34.52
2.272000,-1648.5625,4.5319,0,2,,-34.52
2.274000,-1648.6250,4.5180,0,2,,-34.52
2.276000,-1648.5937,4.5044,0,2,,-34.52
2.278000,-1648.6250,4.4912,0,2,,-34.52
2.280000,-1648.6875,4.4785,0,2,,-34.52
2.282000,-1648.6875,4.4659,0,2,,-34.52
2.284000,-1648.5625,4.4528,0,2,,-34.52
2.286000,-1648.6250,4.4379,0,2,,-34.52
2.288000,-1648.5312,4.4199,0,2,,-34.52
2.290000,-1648.5000,4.3980,0,2,,-34.52
2.292000,-1648.3750,4.3719,0,2,,-34.52
2.294000,-1648.6562,4.3426,0,2,,-34.52
2.296000,-1648.6562,4.3115,0,2,,-34.52
2.298000,-1648.6562,4.2803,0,2,,-34.52
2.300000,-1648.6562,4.2503,0,2,,-34.52
2.302000,-1648.6875,4.2216,0,2,,-34.52
2.304000,-1648.6562,4.1936,0,2,,-34.52
2.306000,-1648.5625,4.1652,0,2,,-34.52
2.308000,-1648.5312,4.1352,0,2,,-34.52
2.310000,-1648.5625,4.1032,0,2,,-34.52
2.312000,-1648.5937,4.0697,0,2,,-34.52
2.314000,-1648.7188,4.0360,0,2,,-34.52
2.316000,-1648.7500,4.0039,0,2,,-34.52
2.318000,-1648.6875,3.9750,0,2,,-34.52
2.320000,-1648.7812,3.9501,0,2,,-34.52
2.322000,-1648.6562,3.9290,0,2,,-34.52
2.324000,-1648.6250,3.9108,0,2,,-34.52
2.326000,-1648.6875,3.8942,0,2,,-34.52
2.328000,-1648.5625,3.8776,0,2,,-34.52
2.330000,-1648.6562,3.8600,0,2,,-34.52
2.332000,-1648.5937,3.8411,0,2,,-34.52
2.334000,-1648.6562,3.8210,0,2,,-34.52
2.336000,-1648.6250,3.8002,0,2,,-34.52
2.338000,-1648.6875,3.7793,0,2,,-34.52
2.340000,-1648.7500,3.7588,0,2,,-34.52
2.342000,-1648.6250,3.7387,0,2,,-34.52
2.344000,-1648.5312,3.7186,0,2,,-34.52
2.346000,-1648.6562,3.6979,0,2,,-34.52
2.348000,-1648.5937,3.6761,0,2,,-34.52
2.350000,-1648.5625,3.6528,0,2,,-34.52
2.352000,-1648.5937,3.6282,0,2,,-34.52
2.354000,-1648.5937,3.6027,0,2,,-34.52
2.356000,-1648.6562,3.5767,0,2,,-34.52
2.358000,-1648.7188,3.5509,0,2,,-34.52
2.360000,-1648.6250,3.5256,0,2,,-34.52
2.362000,-1648.6250,3.5006,0,2,,-34.52
2.364000,-1648.6250,3.4756,0,2,,-34.52
2.366000,-1648.5937,3.4501,0,2,,-34.52
2.368000,-1648.5937,3.4239,0,2,,-34.52
2.370000,-1648.5937,3.3968,0,2,,-34.52
2.372000,-1648.6250,3.3692,0,2,,-34.52
2.374000,-1648.6562,3.3417,0,2,,-34.52
2.376000,-1648.5625,3.3150,0,2,,-34.52
2.378000,-1648.7188,3.2894,0,2,,-34.52
2.380000,-1648.7188,3.2653,0,2,,-34.52
2.382000,-1648.6875,3.2420,0,2,,-34.52
2.384000,-1648.5937,3.2188,0,2,,-34.52
2.386000,-1648.5937,3.1945,0,2,,-34.52
2.388000,-1648.5312,3.1681,0,2,,-34.52
2.390000,-1648.6875,3.1392,0,2,,-34.52
2.392000,-1648.5937,3.1083,0,2,,-34.52
2.394000,-1648.5937,3.0763,0,2,,-34.52
2.396000,-1648.7188,3.0447,0,2,,-34.52
2.398000,-1648.7812,3.0148,0,2,,-34.52
2.400000,-1648.6875,2.9876,0,2,,-34.52
2.402000,-1648.6562,2.9632,0,2,,-34.52
2.404000,-1648.6250,2.9412,0,2,,-34.52
2.406000,-1648.6562,2.9207,0,2,,-34.52
2.408000,-1648.5937,2.9007,0,2,,-34.52
2.410000,-1648.5937,2.8804,0,2,,-34.52
2.412000,-1648.6562,2.8595,0,2,,-34.52
2.414000,-1648.6562,2.8380,0,2,,-34.52
2.416000,-1648.6562,2.8164,0,2,,-34.52
2.418000,-1648.6875,2.7949,0,2,,-34.52
2.420000,-1648.6562,2.7737,0,2,,-34.52
2.422000,-1648.5937,2.7530,0,2,,-34.52
2.424000,-1648.6250,2.7323,0,2,,-34.52
2.426000,-1648.5937,2.7115,0,2,,-34.52
2.428000,-1648.5312,2.6900,0,2,,-34.52
2.430000,-1648.6250,2.6676,0,2,,-34.52
2.432000,-1648.6250,2.6439,0,2,,-34.52
2.434000,-1648.6250,2.6186,0,2,,-34.52
2.436000,-1648.6250,2.5913,0,2,,-34.52
2.438000,-1648.5937,2.5619,0,2,,-34.52
2.440000,-1648.6875,2.5301,0,2,,-34.52
2.442000,-1648.6250,2.4958,0,2,,-34.52
2.444000,-1648.6562,2.4592,0,2,,-34.52
2.446000,-1648.6250,2.4212,0,2,,-34.52
2.448000,-1648.5312,2.3828,0,2,,-34.52
2.450000,-1648.6250,2.3455,0,2,,-34.52
2.452000,-1648.8438,2.3111,0,2,,-34.52
2.454000,-1648.6875,2.2813,0,2,,-34.52
2.456000,-1648.7188,2.2568,0,2,,-34.52
2.458000,-1648.7188,2.2378,0,2,,-34.52
2.460000,-1648.6562,2.2234,0,2,,-34.52
2.462000,-1648.6562,2.2122,0,2,,-34.52
2.464000,-1648.6250,2.2021,0,2,,-34.52
2.466000,-1648.6875,2.1913,0,2,,-34.52
2.468000,-1648.5000,2.1779,0,2,,-34.52
2.470000,-1648.6250,2.1607,0,2,,-34.52
2.472000,-1648.6562,2.1392,0,2,,-34.52
2.474000,-1648.5625,2.1136,0,2,,-34.52
2.476000,-1648.5937,2.0848,0,2,,-34.52
2.478000,-1648.7188,2.0538,0,2,,-34.52
2.480000,-1648.6562,2.0221,0,2,,-34.52
2.482000,-1648.6562,1.9907,0,2,,-34.52
2.484000,-1648.6250,1.9604,0,2,,-34.52
2.486000,-1648.5625,1.9315,0,2,,-34.52
2.488000,-1648.5937,1.9042,0,2,,-34.52
2.490000,-1648.7188,1.8788,0,2,,-34.52
2.492000,-1648.5625,1.8553,0,2,,-34.52
2.494000,-1648.6875,1.8340,0,2,,-34.52
2.496000,-1648.7188,1.8149,0,2,,-34.52
2.498000,-1648.5625,1.7976,0,2,,-34.52
2.500000,-1648.6875,1.7814,0,2,,-34.52
2.502000,-1648.6562,1.7652,0,2,,-34.52
2.504000,-1648.6562,1.7476,0,2,,-34.52
2.506000,-1648.4062,1.7273,0,2,,-34.52
2.508000,-1648.5937,1.7033,0,2,,-34.52
2.510000,-1648.5937,1.6756,0,2,,-34.52
2.512000,-1648.5937,1.6448,0,2,,-34.52
2.514000,-1648.6875,1.6121,0,2,,-34.52
2.516000,-1648.6875,1.5791,0,2,,-34.52
2.518000,-1648.6875,1.5468,0,2,,-34.52
2.520000,-1648.6562,1.5161,0,2,,-34.52
2.522000,-1648.5937,1.4873,0,2,,-34.52
2.524000,-1648.5625,1.4603,0,2,,-34.52
2.526000,-1648.6250,1.4349,0,2,,-34.52
2.528000,-1648.7500,1.4111,0,2,,-34.52
2.530000,-1648.5937,1.3889,0,2,,-34.52
2.532000,-1648.6250,1.3685,0,2,,-34.52
2.534000,-1648.6562,1.3499,0,2,,-34.52
2.536000,-1648.6250,1.3332,0,2,,-34.52
2.538000,-1648.7188,1.3181,0,2,,-34.52
2.540000,-1648.6250,1.3037,0,2,,-34.52
2.542000,-1648.6250,1.2890,0,2,,-34.52
2.544000,-1648.5625,1.2723,0,2,,-34.52
2.546000,-1648.5312,1.2523,0,2,,-34.52
2.548000,-1648.6250,1.2280,0,2,,-34.52
2.550000,-1648.5312,1.1992,0,2,,-34.52
2.552000,-1648.5312,1.1671,0,2,,-34.52
2.554000,-1648.6875,1.1335,0,2,,-34.52
2.556000,-1648.6875,1.1006,0,2,,-34.52
2.558000,-1648.7500,1.0704,0,2,,-34.52
2.560000,-1648.6562,1.0441,0,2,,-34.52
2.562000,-1648.6250,1.0217,0,2,,-34.52
2.564000,-1648.5312,1.0021,0,2,,-34.52
2.566000,-1648.5937,0.9839,0,2,,-34.52
2.568000,-1648.6250,0.9654,0,2,,-34.52
2.570000,-1648.5937,0.9451,0,2,,-34.52
2.572000,-1648.5625,0.9222,0,2,,-34.52
2.574000,-1648.7812,0.8964,0,2,,-34.52
2.576000,-1648.7500,0.8678,0,2,,-34.52
2.578000,-1648.6562,0.8366,0,2,,-34.52
2.580000,-1648.5000,0.8034,0,2,,-34.52
2.582000,-1648.6562,0.7694,0,2,,-34.52
2.584000,-1648.5937,0.7361,0,2,,-34.52
2.586000,-1648.5937,0.7055,0,2,,-34.52
2.588000,-1648.8438,0.6797,0,2,,-34.52
2.590000,-1648.6875,0.6599,0,2,,-34.52
2.592000,-1648.7188,0.6465,0,2,,-34.52
2.594000,-1648.7188,0.6383,0,2,,-34.52
2.596000,-1648.5937,0.6334,0,2,,-34.52
2.598000,-1648.5937,0.6289,0,2,,-34.52
2.600000,-1648.6562,0.6222,0,2,,-34.52
2.602000,-1648.5937,0.6109,0,2,,-34.52
2.604000,-1648.4688,0.5939,0,2,,-34.52
2.606000,-1648.5937,0.5712,0,2,,-34.52
2.608000,-1648.5937,0.5440,0,2,,-34.52
2.610000,-1648.5937,0.5142,0,2,,-34.52
2.612000,-1648.6562,0.4841,0,2,,-34.52
2.614000,-1648.7188,0.4556,0,2,,-34.52
2.616000,-1648.6562,0.4300,0,2,,-34.52
2.618000,-1648.6875,0.4073,0,2,,-34.52
2.620000,-1648.6250,0.3868,0,2,,-34.52
2.622000,-1648.5000,0.3670,0,2,,-34.52
2.624000,-1648.6250,0.3469,0,2,,-34.52
2.626000,-1648.5312,0.3256,0,2,,-34.52
2.628000,-1648.5937,0.3036,0,2,,-34.52
2.630000,-1648.6562,0.2816,0,2,,-34.52
2.632000,-1648.6875,0.2610,0,2,,-34.52
2.634000,-1648.7188,0.2426,0,2,,-34.52
2.636000,-1648.7188,0.2266,0,2,,-34.52
2.638000,-1648.6562,0.2119,0,2,,-34.52
2.640000,-1648.5625,0.1969,0,2,,-34.52
2.642000,-1648.3750,0.1799,0,2,,-34.52
2.644000,-1648.5937,0.1595,0,2,,-34.52
2.646000,-1648.5937,0.1354,0,2,,-34.52
2.648000,-1648.7188,0.1083,0,2,,-34.52
2.650000,-1648.6250,0.0795,0,2,,-34.52
2.652000,-1648.6875,0.0505,0,2,,-34.52
2.654000,-1648.6562,0.0224,0,2,,-34.52
2.656000,-1648.6562,-0.0039,0,2,,-34.52
2.658000,-1648.7188,-0.0281,0,2,,-34.52
2.660000,-1648.6250,-0.0503,0,2,,-34.52
2.662000,-1648.5937,-0.0708,0,2,,-34.52
2.664000,-1648.5937,-0.0897,0,2,,-34.52
2.666000,-1648.5937,-0.1069,0,2,,-34.52
2.668000,-1648.6562,-0.1221,0,2,,-34.52
2.670000,-1648.6875,-0.1348,0,2,,-34.52
2.672000,-1648.7500,-0.1453,0,2,,-34.52
2.674000,-1648.6562,-0.1542,0,2,,-34.52
2.676000,-1648.6562,-0.1630,0,2,,-34.52
2.678000,-1648.6250,-0.1738,0,2,,-34.52
2.680000,-1648.5000,-0.1886,0,2,,-34.52
2.682000,-1648.5625,-0.2087,0,2,,-34.52
2.684000,-1648.5625,-0.2344,0,2,,-34.52
2.686000,-1648.5625,-0.2643,0,2,,-34.52
2.688000,-1648.6250,-0.2961,0,2,,-34.52
2.690000,-1648.6875,-0.3269,0,2,,-34.52
2.692000,-1648.7812,-0.3540,0,2,,-34.52
2.694000,-1648.7500,-0.3755,0,2,,-34.52
2.696000,-1648.6562,-0.3913,0,2,,-34.52
2.698000,-1648.6875,-0.4027,0,2,,-34.52
2.700000,-1648.5625,-0.4118,0,2,,-34.52
2.702000,-1648.5937,-0.4213,0,2,,-34.52
2.704000,-1648.5000,-0.4331,0,2,,-34.52
2.706000,-1648.6250,-0.4482,0,2,,-34.52
2.708000,-1648.5937,-0.4664,0,2,,-34.52
2.710000,-1648.6875,-0.4865,0,2,,-34.52
2.712000,-1648.7500,-0.5070,0,2,,-34.52
2.714000,-1648.7188,-0.5269,0,2,,-34.52
2.716000,-1648.6562,-0.5460,0,2,,-34.52
2.718000,-1648.6562,-0.5650,0,2,,-34.52
2.720000,-1648.5937,-0.5848,0,2,,-34.52
2.722000,-1648.5312,-0.6064,0,2,,-34.52
2.724000,-1648.5625,-0.6298,0,2,,-34.52
2.726000,-1648.6562,-0.6538,0,2,,-34.52
2.728000,-1648.6250,-0.6763,0,2,,-34.52
2.730000,-1648.7188,-0.6949,0,2,,-34.52
2.732000,-1648.8750,-0.7077,0,2,,-34.52
2.734000,-1648.7188,-0.7143,0,2,,-34.52
2.736000,-1648.6562,-0.7160,0,2,,-34.52
2.738000,-1648.6562,-0.7156,0,2,,-34.52
2.740000,-1648.4375,-0.7166,0,2,,-34.52
2.742000,-1648.4688,-0.7222,0,2,,-34.52
2.744000,-1648.5937,-0.7343,0,2,,-34.52
2.746000,-1648.6562,-0.7532,0,2,,-34.52
2.748000,-1648.5937,-0.7777,0,2,,-34.52
2.750000,-1648.6875,-0.8055,0,2,,-34.52
2.752000,-1648.6875,-0.8338,0,2,,-34.52
2.754000,-1648.6875,-0.8603,0,2,,-34.52
2.756000,-1648.6562,-0.8830,0,2,,-34.52
2.758000,-1648.6875,-0.9014,0,2,,-34.52
2.760000,-1648.5625,-0.9154,0,2,,-34.52
2.762000,-1648.6250,-0.9259,0,2,,-34.52
2.764000,-1648.5937,-0.9338,0,2,,-34.52
2.766000,-1648.6250,-0.9405,0,2,,-34.52
2.768000,-1648.6875,-0.9470,0,2,,-34.52
2.770000,-1648.6875,-0.9544,0,2,,-34.52
2.772000,-1648.5937,-0.9635,0,2,,-34.52
2.774000,-1648.6562,-0.9752,0,2,,-34.52
2.776000,-1648.6562,-0.9899,0,2,,-34.52
2.778000,-1648.6250,-1.0078,0,2,,-34.52
2.780000,-1648.5312,-1.0287,0,2,,-34.52
2.782000,-1648.5312,-1.0516,0,2,,-34.52
2.784000,-1648.6250,-1.0750,0,2,,-34.52
2.786000,-1648.7812,-1.0971,0,2,,-34.52
2.788000,-1648.6250,-1.1165,0,2,,-34.52
2.790000,-1648.7188,-1.1319,0,2,,-34.52
2.792000,-1648.6875,-1.1432,0,2,,-34.52
2.794000,-1648.7188,-1.1510,0,2,,-34.52
2.796000,-1648.6250,-1.1568,0,2,,-34.52
2.798000,-1648.5937,-1.1623,0,2,,-34.52
2.800000,-1648.5937,-1.1694,0,2,,-34.52
2.802000,-1648.5625,-1.1792,0,2,,-34.52
2.804000,-1648.6562,-1.1923,0,2,,-34.52
2.806000,-1648.6250,-1.2086,0,2,,-34.52
2.808000,-1648.7500,-1.2271,0,2,,-34.52
2.810000,-1648.5937,-1.2467,0,2,,-34.52
2.812000,-1648.6875,-1.2659,0,2,,-34.52
2.814000,-1648.6562,-1.2832,0,2,,-34.52
2.816000,-1648.7500,-1.2977,0,2,,-34.52
2.818000,-1648.6562,-1.3086,0,2,,-34.52
2.820000,-1648.5625,-1.3159,0,2,,-34.52
2.822000,-1648.6250,-1.3198,0,2,,-34.52
2.824000,-1648.5937,-1.3212,0,2,,-34.52
2.826000,-1648.6562,-1.3210,0,2,,-34.52
2.828000,-1648.6875,-1.3204,0,2,,-34.52
2.830000,-1648.7188,-1.3206,0,2,,-34.52
2.832000,-1648.5000,-1.3231,0,2,,-34.52
2.834000,-1648.6250,-1.3290,0,2,,-34.52
2.836000,-1648.6250,-1.3391,0,2,,-34.52
2.838000,-1648.5937,-1.3533,0,2,,-34.52
2.840000,-1648.4375,-1.3710,0,2,,-34.52
2.842000,-1648.5937,-1.3905,0,2,,-34.52
2.844000,-1648.6562,-1.4100,0,2,,-34.52
2.846000,-1648.6875,-1.4275,0,2,,-34.52
2.848000,-1648.6250,-1.4415,0,2,,-34.52
2.850000,-1648.7500,-1.4518,0,2,,-34.52
2.852000,-1648.6562,-1.4588,0,2,,-34.52
2.854000,-1648.6562,-1.4642,0,2,,-34.52
2.856000,-1648.5000,-1.4697,0,2,,-34.52
2.858000,-1648.5937,-1.4771,0,2,,-34.52
2.860000,-1648.5312,-1.4870,0,2,,-34.52
2.862000,-1648.6875,-1.4993,0,2,,-34.52
2.864000,-1648.5625,-1.5130,0,2,,-34.52
2.866000,-1648.6250,-1.5265,0,2,,-34.52
2.868000,-1648.7500,-1.5383,0,2,,-34.52
2.870000,-1648.6875,-1.5475,0,2,,-34.52
2.872000,-1648.6562,-1.5541,0,2,,-34.52
2.874000,-1648.6562,-1.5589,0,2,,-34.52
2.876000,-1648.5625,-1.5636,0,2,,-34.52
2.878000,-1648.5937,-1.5698,0,2,,-34.52
2.880000,-1648.5312,-1.5785,0,2,,-34.52
2.882000,-1648.6250,-1.5899,0,2,,-34.52
2.884000,-1648.6250,-1.6034,0,2,,-34.52
2.886000,-1648.5937,-1.6172,0,2,,-34.52
2.888000,-1648.7188,-1.6296,0,2,,-34.52
2.890000,-1648.7188,-1.6387,0,2,,-34.52
2.892000,-1648.6875,-1.6436,0,2,,-34.52
2.894000,-1648.6562,-1.6448,0,2,,-34.52
2.896000,-1648.5937,-1.6433,0,2,,-34.52
2.898000,-1648.5312,-1.6414,0,2,,-34.52
2.900000,-1648.5312,-1.6412,0,2,,-34.52
2.902000,-1648.6250,-1.6445,0,2,,-34.52
2.904000,-1648.6250,-1.6523,0,2,,-34.52
2.906000,-1648.6250,-1.6648,0,2,,-34.52
2.908000,-1648.5937,-1.6810,0,2,,-34.52
2.910000,-1648.6875,-1.6994,0,2,,-34.52
2.912000,-1648.6562,-1.7178,0,2,,-34.52
2.914000,-1648.5937,-1.7342,0,2,,-34.52
2.916000,-1648.7812,-1.7468,0,2,,-34.52
2.918000,-1648.5937,-1.7548,0,2,,-34.52
2.920000,-1648.5937,-1.7577,0,2,,-34.52
2.922000,-1648.6250,-1.7561,0,2,,-34.52
2.924000,-1648.5937,-1.7510,0,2,,-34.52
2.926000,-1648.6562,-1.7438,0,2,,-34.52
2.928000,-1648.7188,-1.7363,0,2,,-34.52
2.930000,-1648.6250,-1.7303,0,2,,-34.52
2.932000,-1648.5937,-1.7277,0,2,,-34.52
2.934000,-1648.5937,-1.7300,0,2,,-34.52
2.936000,-1648.5625,-1.7382,0,2,,-34.52
2.938000,-1648.4688,-1.7519,0,2,,-34.52
2.940000,-1648.5625,-1.7701,0,2,,-34.52
2.942000,-1648.6250,-1.7904,0,2,,-34.52
2.944000,-1648.6562,-1.8101,0,2,,-34.52
2.946000,-1648.7500,-1.8271,0,2,,-34.52
2.948000,-1648.7812,-1.8398,0,2,,-34.52
2.950000,-1648.7188,-1.8481,0,2,,-34.52
2.952000,-1648.5937,-1.8531,0,2,,-34.52
2.954000,-1648.6562,-1.8564,0,2,,-34.52
2.956000,-1648.5625,-1.8597,0,2,,-34.52
2.958000,-1648.5625,-1.8637,0,2,,-34.52
2.960000,-1648.6562,-1.8681,0,2,,-34.52
2.962000,-1648.7188,-1.8718,0,2,,-34.52
2.964000,-1648.6562,-1.8731,0,2,,-34.52
2.966000,-1648.7188,-1.8708,0,2,,-34.52
2.968000,-1648.7188,-1.8646,0,2,,-34.52
2.970000,-1648.6875,-1.8552,0,2,,-34.52
2.972000,-1648.5937,-1.8446,0,2,,-34.52
2.974000,-1648.6250,-1.8352,0,2,,-34.52
2.976000,-1648.5000,-1.8293,0,2,,-34.52
2.978000,-1648.4375,-1.8283,0,2,,-34.52
2.980000,-1648.5937,-1.8324,0,2,,-34.52
2.982000,-1648.6250,-1.8405,0,2,,-34.52
2.984000,-1648.6250,-1.8503,0,2,,-34.52
2.986000,-1648.6875,-1.8599,0,2,,-34.52
2.988000,-1648.7188,-1.8673,0,2,,-34.52
2.990000,-1648.6250,-1.8719,0,2,,-34.52
2.992000,-1648.5937,-1.8741,0,2,,-34.52
2.994000,-1648.5937,-1.8748,0,2,,-34.52
2.996000,-1648.5625,-1.8755,0,2,,-34.52
2.998000,-1648.5625,-1.8770,0,2,,-34.52
3.000000,-1648.5312,-1.8798,0,2,,-34.52
3.002000,-1648.5937,-1.8833,0,2,,-34.52
3.004000,-1648.6875,-1.8867,0,2,,-34.52
3.006000,-1648.7500,-1.8893,0,2,,-34.52
3.008000,-1648.6250,-1.8907,0,2,,-34.52
3.010000,-1648.6562,-1.8914,0,2,,-34.52
3.012000,-1648.6250,-1.8927,0,2,,-34.52
3.014000,-1648.6562,-1.8959,0,2,,-34.52
3.016000,-1648.4062,-1.9021,0,2,,-34.52
3.018000,-1648.5625,-1.9114,0,2,,-34.52
3.020000,-1648.6250,-1.9228,0,2,,-34.52
3.022000,-1648.7500,-1.9342,0,2,,-34.52
3.024000,-1648.6875,-1.9435,0,2,,-34.52
3.026000,-1648.7188,-1.9486,0,2,,-34.52
3.028000,-1648.6875,-1.9488,0,2,,-34.52
3.030000,-1648.7500,-1.9446,0,2,,-34.52
3.032000,-1648.6562,-1.9377,0,2,,-34.52
3.034000,-1648.5625,-1.9306,0,2,,-34.52
3.036000,-1648.5625,-1.9255,0,2,,-34.52
3.038000,-1648.5625,-1.9240,0,2,,-34.52
3.040000,-1648.5937,-1.9265,0,2,,-34.52
3.042000,-1648.6875,-1.9322,0,2,,-34.52
3.044000,-1648.7500,-1.9395,0,2,,-34.52
3.046000,-1648.7188,-1.9465,0,2,,-34.52
3.048000,-1648.7188,-1.9518,0,2,,-34.52
3.050000,-1648.6562,-1.9546,0,2,,-34.52
3.052000,-1648.5937,-1.9548,0,2,,-34.52
3.054000,-1648.7188,-1.9525,0,2,,-34.52
3.056000,-1648.5625,-1.9484,0,2,,-34.52
3.058000,-1648.5937,-1.9428,0,2,,-34.52
3.060000,-1648.6562,-1.9361,0,2,,-34.52
3.062000,-1648.7500,-1.9286,0,2,,-34.52
3.064000,-1648.6875,-1.9208,0,2,,-34.52
3.066000,-1648.6562,-1.9131,0,2,,-34.52
3.068000,-1648.6562,-1.9065,0,2,,-34.52
3.070000,-1648.5625,-1.9014,0,2,,-34.52
3.072000,-1648.5937,-1.8984,0,2,,-34.52
3.074000,-1648.5625,-1.8971,0,2,,-34.52
3.076000,-1648.7188,-1.8969,0,2,,-34.52
3.078000,-1648.5000,-1.8969,0,2,,-34.52
3.080000,-1648.6875,-1.8960,0,2,,-34.52
3.082000,-1648.6875,-1.8935,0,2,,-34.52
3.084000,-1648.6250,-1.8894,0,2,,-34.52
3.086000,-1648.5937,-1.8838,0,2,,-34.52
3.088000,-1648.6875,-1.8777,0,2,,-34.52
3.090000,-1648.6562,-1.8718,0,2,,-34.52
3.092000,-1648.5625,-1.8673,0,2,,-34.52
3.094000,-1648.5312,-1.8646,0,2,,-34.52
3.096000,-1648.5937,-1.8638,0,2,,-34.52
3.098000,-1648.6250,-1.8642,0,2,,-34.52
3.100000,-1648.5312,-1.8649,0,2,,-34.52
3.102000,-1648.6562,-1.8647,0,2,,-34.52
3.104000,-1648.7500,-1.8627,0,2,,-34.52
3.106000,-1648.7188,-1.8588,0,2,,-34.52
3.108000,-1648.5625,-1.8538,0,2,,-34.52
3.110000,-1648.6562,-1.8491,0,2,,-34.52
3.112000,-1648.5625,-1.8464,0,2,,-34.52
3.114000,-1648.5937,-1.8468,0,2,,-34.52
3.116000,-1648.4688,-1.8508,0,2,,-34.52
3.118000,-1648.6562,-1.8575,0,2,,-34.52
3.120000,-1648.6250,-1.8653,0,2,,-34.52
3.122000,-1648.8125,-1.8724,0,2,,-34.52
3.124000,-1648.7500,-1.8770,0,2,,-34.52
3.126000,-1648.7188,-1.8784,0,2,,-34.52
3.128000,-1648.6250,-1.8770,0,2,,-34.52
3.130000,-1648.7188,-1.8735,0,2,,-34.52
3.132000,-1648.5937,-1.8692,0,2,,-34.52
3.134000,-1648.5625,-1.8648,0,2,,-34.52
3.136000,-1648.5937,-1.8602,0,2,,-34.52
3.138000,-1648.8438,-1.8547,0,2,,-34.52
3.140000,-1648.6250,-1.8473,0,2,,-34.52
3.142000,-1648.7188,-1.8370,0,2,,-34.52
3.144000,-1648.6875,-1.8236,0,2,,-34.52
3.146000,-1648.6562,-1.8076,0,2,,-34.52
3.148000,-1648.6875,-1.7907,0,2,,-34.52
3.150000,-1648.6250,-1.7748,0,2,,-34.52
3.152000,-1648.5312,-1.7622,0,2,,-34.52
3.154000,-1648.5937,-1.7546,0,2,,-34.52
3.156000,-1648.5937,-1.7529,0,2,,-34.52
3.158000,-1648.6250,-1.7568,0,2,,-34.52
3.160000,-1648.5625,-1.7647,0,2,,-34.52
3.162000,-1648.6875,-1.7740,0,2,,-34.52
3.164000,-1648.7188,-1.7816,0,2,,-34.52
3.166000,-1648.6562,-1.7849,0,2,,-34.52
3.168000,-1648.8750,-1.7821,0,2,,-34.52
3.170000,-1648.6250,-1.7729,0,2,,-34.52
3.172000,-1648.5937,-1.7582,0,2,,-34.52
3.174000,-1648.6562,-1.7402,0,2,,-34.52
3.176000,-1648.4688,-1.7213,0,2,,-34.52
3.178000,-1648.6250,-1.7037,0,2,,-34.52
3.180000,-1648.6562,-1.6890,0,2,,-34.52
3.182000,-1648.7500,-1.6782,0,2,,-34.52
3.184000,-1648.5937,-1.6715,0,2,,-34.52
3.186000,-1648.5937,-1.6689,0,2,,-34.52
3.188000,-1648.6250,-1.6701,0,2,,-34.52
3.190000,-1648.7500,-1.6744,0,2,,-34.52
3.192000,-1648.5000,-1.6809,0,2,,-34.52
3.194000,-1648.5937,-1.6880,0,2,,-34.52
3.196000,-1648.5625,-1.6940,0,2,,-34.52
3.198000,-1648.8438,-1.6969,0,2,,-34.52
3.200000,-1648.6562,-1.6952,0,2,,-34.52
3.202000,-1648.7500,-1.6877,0,2,,-34.52
3.204000,-1648.7500,-1.6746,0,2,,-34.52
3.206000,-1648.6562,-1.6569,0,2,,-34.52
3.208000,-1648.6250,-1.6365,0,2,,-34.52
3.210000,-1648.5312,-1.6155,0,2,,-34.52
3.212000,-1648.6875,-1.5959,0,2,,-34.52
3.214000,-1648.5312,-1.5792,0,2,,-34.52
3.216000,-1648.6562,-1.5662,0,2,,-34.52
3.218000,-1648.5937,-1.5571,0,2,,-34.52
3.220000,-1648.5625,-1.5513,0,2,,-34.52
3.222000,-1648.6875,-1.5479,0,2,,-34.52
3.224000,-1648.7188,-1.5462,0,2,,-34.52
3.226000,-1648.5937,-1.5453,0,2,,-34.52
3.228000,-1648.6250,-1.5445,0,2,,-34.52
3.230000,-1648.5937,-1.5433,0,2,,-34.52
3.232000,-1648.5937,-1.5413,0,2,,-34.52
3.234000,-1648.6875,-1.5380,0,2,,-34.52
3.236000,-1648.5937,-1.5325,0,2,,-34.52
3.238000,-1648.5625,-1.5242,0,2,,-34.52
3.240000,-1648.7188,-1.5126,0,2,,-34.52
3.242000,-1648.7500,-1.4977,0,2,,-34.52
3.244000,-1648.6562,-1.4803,0,2,,-34.52
3.246000,-1648.6562,-1.4620,0,2,,-34.52
3.248000,-1648.6250,-1.4449,0,2,,-34.52
3.250000,-1648.5312,-1.4310,0,2,,-34.52
3.252000,-1648.4375,-1.4217,0,2,,-34.52
3.254000,-1648.5625,-1.4170,0,2,,-34.52
3.256000,-1648.6250,-1.4159,0,2,,-34.52
3.258000,-1648.6875,-1.4160,0,2,,-34.52
3.260000,-1648.6875,-1.4150,0,2,,-34.52
3.262000,-1648.7188,-1.4108,0,2,,-34.52
3.264000,-1648.6250,-1.4025,0,2,,-34.52
3.266000,-1648.6250,-1.3904,0,2,,-34.52
3.268000,-1648.6250,-1.3757,0,2,,-34.52
3.270000,-1648.5312,-1.3600,0,2,,-34.52
3.272000,-1648.5625,-1.3450,0,2,,-34.52
3.274000,-1648.5312,-1.3316,0,2,,-34.52
3.276000,-1648.5937,-1.3204,0,2,,-34.52
3.278000,-1648.6875,-1.3110,0,2,,-34.52
3.280000,-1648.6875,-1.3031,0,2,,-34.52
3.282000,-1648.5937,-1.2962,0,2,,-34.52
3.284000,-1648.6250,-1.2902,0,2,,-34.52
3.286000,-1648.6250,-1.2850,0,2,,-34.52
3.288000,-1648.5625,-1.2807,0,2,,-34.52
3.290000,-1648.5312,-1.2770,0,2,,-34.52
3.292000,-1648.5937,-1.2732,0,2,,-34.52
3.294000,-1648.6250,-1.2681,0,2,,-34.52
3.296000,-1648.6250,-1.2606,0,2,,-34.52
3.298000,-1648.6875,-1.2499,0,2,,-34.52
3.300000,-1648.6875,-1.2356,0,2,,-34.52
3.302000,-1648.6875,-1.2185,0,2,,-34.52
3.304000,-1648.5312,-1.2001,0,2,,-34.52
3.306000,-1648.6250,-1.1822,0,2,,-34.52
3.308000,-1648.5625,-1.1668,0,2,,-34.52
3.310000,-1648.5312,-1.1551,0,2,,-34.52
3.312000,-1648.4688,-1.1475,0,2,,-34.52
3.314000,-1648.6250,-1.1432,0,2,,-34.52
3.316000,-1648.6250,-1.1407,0,2,,-34.52
3.318000,-1648.6562,-1.1381,0,2,,-34.52
3.320000,-1648.6875,-1.1339,0,2,,-34.52
3.322000,-1648.6250,-1.1274,0,2,,-34.52
3.324000,-1648.6250,-1.1186,0,2,,-34.52
3.326000,-1648.6875,-1.1086,0,2,,-34.52
3.328000,-1648.5000,-1.0988,0,2,,-34.52
3.330000,-1648.5312,-1.0906,0,2,,-34.52
3.332000,-1648.6250,-1.0849,0,2,,-34.52
3.334000,-1648.6250,-1.0816,0,2,,-34.52
3.336000,-1648.6250,-1.0801,0,2,,-34.52
3.338000,-1648.6875,-1.0791,0,2,,-34.52
3.340000,-1648.6875,-1.0773,0,2,,-34.52
3.342000,-1648.7188,-1.0737,0,2,,-34.52
3.344000,-1648.7188,-1.0678,0,2,,-34.52
3.346000,-1648.6562,-1.0598,0,2,,-34.52
3.348000,-1648.5312,-1.0504,0,2,,-34.52
3.350000,-1648.6250,-1.0402,0,2,,-34.52
3.352000,-1648.7188,-1.0300,0,2,,-34.52
3.354000,-1648.6250,-1.0201,0,2,,-34.52
3.356000,-1648.6562,-1.0103,0,2,,-34.52
3.358000,-1648.6250,-1.0005,0,2,,-34.52
3.360000,-1648.8750,-0.9904,0,2,,-34.52
3.362000,-1648.6562,-0.9801,0,2,,-34.52
3.364000,-1648.5937,-0.9699,0,2,,-34.52
3.366000,-1648.7812,-0.9604,0,2,,-34.52
3.368000,-1648.5625,-0.9519,0,2,,-34.52
3.370000,-1648.5625,-0.9443,0,2,,-34.52
3.372000,-1648.6250,-0.9371,0,2,,-34.52
3.374000,-1648.7188,-0.9288,0,2,,-34.52
3.376000,-1648.6562,-0.9177,0,2,,-34.52
3.378000,-1648.7188,-0.9026,0,2,,-34.52
3.380000,-1648.8125,-0.8828,0,2,,-34.52
3.382000,-1648.6875,-0.8592,0,2,,-34.52
3.384000,-1648.6562,-0.8337,0,2,,-34.52
3.386000,-1648.5625,-0.8088,0,2,,-34.52
3.388000,-1648.4688,-0.7868,0,2,,-34.52
3.390000,-1648.4375,-0.7691,0,2,,-34.52
3.392000,-1648.6250,-0.7558,0,2,,-34.52
3.394000,-1648.6562,-0.7454,0,2,,-34.52
3.396000,-1648.6250,-0.7364,0,2,,-34.52
3.398000,-1648.7188,-0.7269,0,2,,-34.52
3.400000,-1648.6875,-0.7164,0,2,,-34.52
3.402000,-1648.6250,-0.7053,0,2,,-34.52
3.404000,-1648.4688,-0.6949,0,2,,-34.52
3.406000,-1648.5312,-0.6868,0,2,,-34.52
3.408000,-1648.5937,-0.6820,0,2,,-34.52
3.410000,-1648.5937,-0.6809,0,2,,-34.52
3.412000,-1648.6250,-0.6825,0,2,,-34.52
3.414000,-1648.5937,-0.6848,0,2,,-34.52
3.416000,-1648.6562,-0.6854,0,2,,-34.52
3.418000,-1648.6875,-0.6823,0,2,,-34.52
3.420000,-1648.8750,-0.6739,0,2,,-34.52
3.422000,-1648.6250,-0.6601,0,2,,-34.52
3.424000,-1648.6875,-0.6418,0,2,,-34.52
3.426000,-1648.5625,-0.6210,0,2,,-34.52
3.428000,-1648.4062,-0.5996,0,2,,-34.52
3.430000,-1648.6250,-0.5793,0,2,,-34.52
3.432000,-1648.6562,-0.5608,0,2,,-34.52
3.434000,-1648.6250,-0.5443,0,2,,-34.52
3.436000,-1648.6250,-0.5295,0,2,,-34.52
3.438000,-1648.7188,-0.5163,0,2,,-34.52
3.440000,-1648.6562,-0.5051,0,2,,-34.52
3.442000,-1648.5312,-0.4963,0,2,,-34.52
3.444000,-1648.5312,-0.4905,0,2,,-34.52
3.446000,-1648.5625,-0.4879,0,2,,-34.52
3.448000,-1648.6250,-0.4882,0,2,,-34.52
3.450000,-1648.6562,-0.4901,0,2,,-34.52
3.452000,-1648.5937,-0.4918,0,2,,-34.52
3.454000,-1648.5937,-0.4915,0,2,,-34.52
3.456000,-1648.7500,-0.4872,0,2,,-34.52
3.458000,-1648.7812,-0.4778,0,2,,-34.52
3.460000,-1648.6875,-0.4632,0,2,,-34.52
3.462000,-1648.6250,-0.4441,0,2,,-34.52
3.464000,-1648.6250,-0.4226,0,2,,-34.52
3.466000,-1648.5625,-0.4007,0,2,,-34.52
3.468000,-1648.5625,-0.3806,0,2,,-34.52
3.470000,-1648.6250,-0.3640,0,2,,-34.52
3.472000,-1648.6562,-0.3514,0,2,,-34.52
3.474000,-1648.4688,-0.3428,0,2,,-34.52
3.476000,-1648.7188,-0.3373,0,2,,-34.52
3.478000,-1648.6875,-0.3336,0,2,,-34.52
3.480000,-1648.7188,-0.3303,0,2,,-34.52
3.482000,-1648.6250,-0.3266,0,2,,-34.52
3.484000,-1648.5937,-0.3218,0,2,,-34.52
3.486000,-1648.5625,-0.3158,0,2,,-34.52
3.488000,-1648.6562,-0.3083,0,2,,-34.52
3.490000,-1648.6250,-0.2992,0,2,,-34.52
3.492000,-1648.6250,-0.2884,0,2,,-34.52
3.494000,-1648.6562,-0.2757,0,2,,-34.52
3.496000,-1648.7188,-0.2612,0,2,,-34.52
3.498000,-1648.7188,-0.2454,0,2,,-34.52
3.500000,-1648.6562,-0.2295,0,2,,-34.52
3.502000,-1648.6562,-0.2149,0,2,,-34.52
3.504000,-1648.5312,-0.2028,0,2,,-34.52
3.506000,-1648.5625,-0.1942,0,2,,-34.52
3.508000,-1648.5625,-0.1888,0,2,,-34.52
3.510000,-1648.6562,-0.1855,0,2,,-34.52
3.512000,-1648.6250,-0.1823,0,2,,-34.52
3.514000,-1648.6875,-0.1771,0,2,,-34.52
3.516000,-1648.7500,-0.1682,0,2,,-34.52
3.518000,-1648.7500,-0.1552,0,2,,-34.52
3.520000,-1648.6250,-0.1388,0,2,,-34.52
3.522000,-1648.6562,-0.1210,0,2,,-34.52
3.524000,-1648.5625,-0.1043,0,2,,-34.52
3.526000,-1648.5312,-0.0910,0,2,,-34.52
3.528000,-1648.5625,-0.0825,0,2,,-34.52
3.530000,-1648.6250,-0.0789,0,2,,-34.52
3.532000,-1648.6562,-0.0788,0,2,,-34.52
3.534000,-1648.7188,-0.0800,0,2,,-34.52
3.536000,-1648.7188,-0.0801,0,2,,-34.52
3.538000,-1648.6875,-0.0771,0,2,,-34.52
3.540000,-1648.7812,-0.0699,0,2,,-34.52
3.542000,-1648.6250,-0.0582,0,2,,-34.52
3.544000,-1648.5937,-0.0430,0,2,,-34.52
3.546000,-1648.5312,-0.0252,0,2,,-34.52
3.548000,-1648.7188,-0.0062,0,2,,-34.52
3.550000,-1648.5625,0.0130,0,2,,-34.52
3.552000,-1648.6562,0.0318,0,2,,-34.52
3.554000,-1648.7500,0.0497,0,2,,-34.52
3.556000,-1648.5937,0.0663,0,2,,-34.52
3.558000,-1648.6562,0.0808,0,2,,-34.52
3.560000,-1648.5937,0.0928,0,2,,-34.52
3.562000,-1648.5937,0.1017,0,2,,-34.52
3.564000,-1648.5312,0.1075,0,2,,-34.52
3.566000,-1648.5625,0.1104,0,2,,-34.52
3.568000,-1648.6250,0.1112,0,2,,-34.52
3.570000,-1648.6875,0.1110,0,2,,-34.52
3.572000,-1648.6562,0.1110,0,2,,-34.52
3.574000,-1648.6875,0.1121,0,2,,-34.52
3.576000,-1648.6562,0.1149,0,2,,-34.52
3.578000,-1648.7188,0.1195,0,2,,-34.52
3.580000,-1648.6562,0.1259,0,2,,-34.52
3.582000,-1648.5937,0.1339,0,2,,-34.52
3.584000,-1648.5625,0.1429,0,2,,-34.52
3.586000,-1648.8125,0.1529,0,2,,-34.52
3.588000,-1648.5937,0.1635,0,2,,-34.52
3.590000,-1648.6562,0.1747,0,2,,-34.52
3.592000,-1648.6875,0.1861,0,2,,-34.52
3.594000,-1648.5937,0.1981,0,2,,-34.52
3.596000,-1648.7188,0.2105,0,2,,-34.52
3.598000,-1648.6562,0.2238,0,2,,-34.52
3.600000,-1648.6562,0.2377,0,2,,-34.52
3.602000,-1648.7188,0.2522,0,2,,-34.52
3.604000,-1648.5312,0.2667,0,2,,-34.52
3.606000,-1648.5625,0.2807,0,2,,-34.52
3.608000,-1648.5625,0.2939,0,2,,-34.52
3.610000,-1648.5625,0.3061,0,2,,-34.52
3.612000,-1648.6875,0.3175,0,2,,-34.52
3.614000,-1648.7188,0.3284,0,2,,-34.52
3.616000,-1648.6562,0.3389,0,2,,-34.52
3.618000,-1648.5312,0.3487,0,2,,-34.52
3.620000,-1648.6562,0.3570,0,2,,-34.52
3.622000,-1648.5625,0.3632,0,2,,-34.52
3.624000,-1648.5937,0.3666,0,2,,-34.52
3.626000,-1648.4688,0.3675,0,2,,-34.52
3.628000,-1648.6250,0.3665,0,2,,-34.52
3.630000,-1648.6562,0.3651,0,2,,-34.52
3.632000,-1648.7188,0.3651,0,2,,-34.52
3.634000,-1648.6875,0.3679,0,2,,-34.52
3.636000,-1648.6875,0.3743,0,2,,-34.52
3.638000,-1648.5937,0.3842,0,2,,-34.52
3.640000,-1648.7812,0.3965,0,2,,-34.52
3.642000,-1648.5312,0.4097,0,2,,-34.52
3.644000,-1648.5312,0.4220,0,2,,-34.52
3.646000,-1648.5937,0.4321,0,2,,-34.52
3.648000,-1648.5625,0.4397,0,2,,-34.52
3.650000,-1648.6250,0.4453,0,2,,-34.52
3.652000,-1648.7188,0.4502,0,2,,-34.52
3.654000,-1648.7188,0.4558,0,2,,-34.52
3.656000,-1648.6562,0.4629,0,2,,-34.52
3.658000,-1648.6250,0.4718,0,2,,-34.52
3.660000,-1648.6250,0.4817,0,2,,-34.52
3.662000,-1648.5625,0.4912,0,2,,-34.52
3.664000,-1648.5937,0.4988,0,2,,-34.52
3.666000,-1648.5312,0.5034,0,2,,-34.52
3.668000,-1648.5937,0.5043,0,2,,-34.52
3.670000,-1648.6562,0.5017,0,2,,-34.52
3.672000,-1648.7188,0.4967,0,2,,-34.52
3.674000,-1648.8125,0.4902,0,2,,-34.52
3.676000,-1648.6250,0.4837,0,2,,-34.52
3.678000,-1648.6875,0.4780,0,2,,-34.52
3.680000,-1648.5625,0.4742,0,2,,-34.52
3.682000,-1648.7812,0.4730,0,2,,-34.52
3.684000,-1648.6250,0.4751,0,2,,-34.52
3.686000,-1648.6250,0.4814,0,2,,-34.52
3.688000,-1648.7188,0.4924,0,2,,-34.52
3.690000,-1648.7188,0.5080,0,2,,-34.52
3.692000,-1648.7500,0.5277,0,2,,-34.52
3.694000,-1648.7188,0.5499,0,2,,-34.52
3.696000,-1648.7812,0.5723,0,2,,-34.52
3.698000,-1648.4688,0.5922,0,2,,-34.52
3.700000,-1648.5625,0.6071,0,2,,-34.52
3.702000,-1648.5625,0.6156,0,2,,-34.52
3.704000,-1648.5312,0.6175,0,2,,-34.52
3.706000,-1648.6250,0.6142,0,2,,-34.52
3.708000,-1648.5625,0.6081,0,2,,-34.52
3.710000,-1648.7188,0.6020,0,2,,-34.52
3.712000,-1648.9687,0.5980,0,2,,-34.52
3.714000,-1648.5937,0.5975,0,2,,-34.52
3.716000,-1648.5937,0.6004,0,2,,-34.52
3.718000,-1648.6250,0.6057,0,2,,-34.52
3.720000,-1648.5937,0.6123,0,2,,-34.52
3.722000,-1648.5937,0.6190,0,2,,-34.52
3.724000,-1648.5625,0.6255,0,2,,-34.52
3.726000,-1648.7812,0.6317,0,2,,-34.52
3.728000,-1648.5937,0.6380,0,2,,-34.52
3.730000,-1648.6875,0.6446,0,2,,-34.52
3.732000,-1648.6875,0.6515,0,2,,-34.52
3.734000,-1648.7500,0.6584,0,2,,-34.52
3.736000,-1648.5625,0.6646,0,2,,-34.52
3.738000,-1648.6250,0.6695,0,2,,-34.52
3.740000,-1648.5312,0.6726,0,2,,-34.52
3.742000,-1648.6250,0.6743,0,2,,-34.52
3.744000,-1648.5625,0.6753,0,2,,-34.52
3.746000,-1648.6562,0.6770,0,2,,-34.52
3.748000,-1648.6250,0.6805,0,2,,-34.52
3.750000,-1648.7500,0.6867,0,2,,-34.52
3.752000,-1648.6875,0.6957,0,2,,-34.52
3.754000,-1648.6250,0.7067,0,2,,-34.52
3.756000,-1648.5937,0.7182,0,2,,-34.52
3.758000,-1648.5625,0.7284,0,2,,-34.52
3.760000,-1648.5625,0.7356,0,2,,-34.52
3.762000,-1648.5625,0.7387,0,2,,-34.52
3.764000,-1648.5000,0.7373,0,2,,-34.52
3.766000,-1648.5937,0.7321,0,2,,-34.52
3.768000,-1648.6875,0.7242,0,2,,-34.52
3.770000,-1648.6875,0.7153,0,2,,-34.52
3.772000,-1648.6875,0.7070,0,2,,-34.52
3.774000,-1648.6250,0.7005,0,2,,-34.52
3.776000,-1648.6562,0.6967,0,2,,-34.52
3.778000,-1648.5937,0.6960,0,2,,-34.52
3.780000,-1648.6875,0.6982,0,2,,-34.52
3.782000,-1648.5625,0.7030,0,2,,-34.52
3.784000,-1648.6250,0.7096,0,2,,-34.52
3.786000,-1648.5937,0.7172,0,2,,-34.52
3.788000,-1648.5937,0.7250,0,2,,-34.52
3.790000,-1648.7500,0.7323,0,2,,-34.52
3.792000,-1648.6562,0.7382,0,2,,-34.52
3.794000,-1648.6562,0.7422,0,2,,-34.52
3.796000,-1648.5312,0.7438,0,2,,-34.52
3.798000,-1648.6250,0.7428,0,2,,-34.52
3.800000,-1648.5312,0.7395,0,2,,-34.52
3.802000,-1648.5625,0.7348,0,2,,-34.52
3.804000,-1648.5937,0.7298,0,2,,-34.52
3.806000,-1648.6250,0.7255,0,2,,-34.52
3.808000,-1648.6875,0.7231,0,2,,-34.52
3.810000,-1648.6875,0.7228,0,2,,-34.52
3.812000,-1648.6875,0.7242,0,2,,-34.52
3.814000,-1648.6250,0.7263,0,2,,-34.52
3.816000,-1648.6562,0.7279,0,2,,-34.52
3.818000,-1648.5000,0.7276,0,2,,-34.52
3.820000,-1648.5312,0.7248,0,2,,-34.52
3.822000,-1648.5312,0.7196,0,2,,-34.52
3.824000,-1648.7188,0.7127,0,2,,-34.52
3.826000,-1648.6250,0.7053,0,2,,-34.52
3.828000,-1648.7188,0.6983,0,2,,-34.52
3.830000,-1648.6562,0.6925,0,2,,-34.52
3.832000,-1648.7188,0.6879,0,2,,-34.52
3.834000,-1648.6250,0.6841,0,2,,-34.52
3.836000,-1648.6250,0.6808,0,2,,-34.52
3.838000,-1648.5625,0.6776,0,2,,-34.52
3.840000,-1648.6875,0.6746,0,2,,-34.52
3.842000,-1648.5312,0.6721,0,2,,-34.52
3.844000,-1648.6562,0.6706,0,2,,-34.52
3.846000,-1648.7188,0.6705,0,2,,-34.52
3.848000,-1648.5937,0.6720,0,2,,-34.52
3.850000,-1648.7188,0.6748,0,2,,-34.52
3.852000,-1648.6562,0.6780,0,2,,-34.52
3.854000,-1648.6250,0.6806,0,2,,-34.52
3.856000,-1648.6875,0.6812,0,2,,-34.52
3.858000,-1648.5312,0.6789,0,2,,-34.52
3.860000,-1648.5312,0.6732,0,2,,-34.52
3.862000,-1648.5625,0.6643,0,2,,-34.52
3.864000,-1648.5625,0.6532,0,2,,-34.52
3.866000,-1648.6562,0.6415,0,2,,-34.52
3.868000,-1648.6875,0.6306,0,2,,-34.52
3.870000,-1648.8750,0.6217,0,2,,-34.52
3.872000,-1648.6562,0.6153,0,2,,-34.52
3.874000,-1648.5937,0.6111,0,2,,-34.52
3.876000,-1648.5625,0.6086,0,2,,-34.52
3.878000,-1648.5625,0.6070,0,2,,-34.52
3.880000,-1648.5625,0.6062,0,2,,-34.52
3.882000,-1648.6875,0.6063,0,2,,-34.52
3.884000,-1648.6562,0.6072,0,2,,-34.52
3.886000,-1648.5625,0.6086,0,2,,-34.52
3.888000,-1648.6875,0.6095,0,2,,-34.52
3.890000,-1648.6875,0.6087,0,2,,-34.52
3.892000,-1648.6250,0.6045,0,2,,-34.52
3.894000,-1648.5625,0.5956,0,2,,-34.52
3.896000,-1648.5625,0.5817,0,2,,-34.52
3.898000,-1648.5312,0.5632,0,2,,-34.52
3.900000,-1648.5625,0.5417,0,2,,-34.52
3.902000,-1648.7500,0.5196,0,2,,-34.52
3.904000,-1648.6562,0.4990,0,2,,-34.52
3.906000,-1648.7188,0.4817,0,2,,-34.52
3.908000,-1648.6875,0.4683,0,2,,-34.52
3.910000,-1648.7188,0.4588,0,2,,-34.52
3.912000,-1648.6562,0.4522,0,2,,-34.52
3.914000,-1648.6875,0.4475,0,2,,-34.52
3.916000,-1648.7500,0.4436,0,2,,-34.52
3.918000,-1648.5625,0.4397,0,2,,-34.52
3.920000,-1648.5937,0.4355,0,2,,-34.52
3.922000,-1648.6875,0.4308,0,2,,-34.52
3.924000,-1648.5625,0.4257,0,2,,-34.52
3.926000,-1648.6875,0.4205,0,2,,-34.52
3.928000,-1648.7500,0.4150,0,2,,-34.52
3.930000,-1648.6875,0.4089,0,2,,-34.52
3.932000,-1648.6875,0.4016,0,2,,-34.52
3.934000,-1648.6562,0.3923,0,2,,-34.52
3.936000,-1648.5625,0.3807,0,2,,-34.52
3.938000,-1648.5937,0.3669,0,2,,-34.52
3.940000,-1648.5937,0.3514,0,2,,-34.52
3.942000,-1648.6562,0.3356,0,2,,-34.52
3.944000,-1648.6562,0.3207,0,2,,-34.52
3.946000,-1648.6875,0.3077,0,2,,-34.52
3.948000,-1648.7812,0.2970,0,2,,-34.52
3.950000,-1648.6562,0.2884,0,2,,-34.52
3.952000,-1648.6562,0.2810,0,2,,-34.52
3.954000,-1648.6562,0.2735,0,2,,-34.52
3.956000,-1648.5937,0.3322,0,3,,-35.89
3.958000,-1648.6250,0.3389,0,3,,-35.89
3.960000,-1648.6562,0.3438,0,3,,-35.89
3.962000,-1648.6562,0.3463,0,3,,-35.89
3.964000,-1648.6562,0.3462,0,3,,-35.89
3.966000,-1648.6250,0.3440,0,3,,-35.89
3.968000,-1648.7188,0.3403,0,3,,-35.89
3.970000,-1648.6562,0.3364,0,3,,-35.89
3.972000,-1648.5937,0.3338,0,3,,-35.89
3.974000,-1648.6250,0.3339,0,3,,-35.89
3.976000,-1648.7500,0.3378,0,3,,-35.89
3.978000,-1648.7188,0.3459,0,3,,-35.89
3.980000,-1648.6875,0.3576,0,3,,-35.89
3.982000,-1648.5937,0.3713,0,3,,-35.89
3.984000,-1648.6250,0.3846,0,3,,-35.89
3.986000,-1648.5937,0.3952,0,3,,-35.89
3.988000,-1648.5625,0.4016,0,3,,-35.89
3.990000,-1648.6250,0.4035,0,3,,-35.89
3.992000,-1648.5937,0.4015,0,3,,-35.89
3.994000,-1648.6250,0.3976,0,3,,-35.89
3.996000,-1648.6875,0.3937,0,3,,-35.89
3.998000,-1648.7188,0.3917,0,3,,-35.89
4.000000,-1648.6250,0.3923,0,3,,-35.89
4.002000,-1648.6250,0.3954,0,3,,-35.89
4.004000,-1648.5625,0.4000,0,3,,-35.89
4.006000,-1648.5937,0.4048,0,3,,-35.89
4.008000,-1648.6875,0.4090,0,3,,-35.89
4.010000,-1648.5312,0.4120,0,3,,-35.89
4.012000,-1648.6250,0.4139,0,3,,-35.89
4.014000,-1648.7500,0.4152,0,3,,-35.89
4.016000,-1648.6562,0.4163,0,3,,-35.89
4.018000,-1648.5625,0.4176,0,3,,-35.89
4.020000,-1648.6250,0.4190,0,3,,-35.89
4.022000,-1648.5312,0.4201,0,3,,-35.89
4.024000,-1648.6250,0.4205,0,3,,-35.89
4.026000,-1648.7188,0.4200,0,3,,-35.89
4.028000,-1648.6562,0.4185,0,3,,-35.89
4.030000,-1648.6875,0.4160,0,3,,-35.89
4.032000,-1648.5312,0.4128,0,3,,-35.89
4.034000,-1648.5937,0.4097,0,3,,-35.89
4.036000,-1648.6250,0.4074,0,3,,-35.89
4.038000,-1648.6875,0.4069,0,3,,-35.89
4.040000,-1648.7500,0.4089,0,3,,-35.89
4.042000,-1648.5937,0.4133,0,3,,-35.89
4.044000,-1648.6875,0.4196,0,3,,-35.89
4.046000,-1648.5937,0.4267,0,3,,-35.89
4.048000,-1648.6250,0.4334,0,3,,-35.89
4.050000,-1648.5937,0.4388,0,3,,-35.89
4.052000,-1648.5937,0.4427,0,3,,-35.89
4.054000,-1648.6250,0.4453,0,3,,-35.89
4.056000,-1648.5937,0.4474,0,3,,-35.89
4.058000,-1648.6562,0.4496,0,3,,-35.89
4.060000,-1648.6875,0.4522,0,3,,-35.89
4.062000,-1648.6250,0.4550,0,3,,-35.89
4.064000,-1648.5625,0.4571,0,3,,-35.89
4.066000,-1648.5937,0.4576,0,3,,-35.89
4.068000,-1648.6562,0.4559,0,3,,-35.89
4.070000,-1648.5312,0.4519,0,3,,-35.89
4.072000,-1648.5625,0.4465,0,3,,-35.89
4.074000,-1648.6875,0.4409,0,3,,-35.89
4.076000,-1648.7500,0.4365,0,3,,-35.89
4.078000,-1648.6875,0.4344,0,3,,-35.89
4.080000,-1648.5625,0.4350,0,3,,-35.89
4.082000,-1648.5625,0.4380,0,3,,-35.89
4.084000,-1648.5937,0.4428,0,3,,-35.89
4.086000,-1648.6562,0.4484,0,3,,-35.89
4.088000,-1648.7188,0.4539,0,3,,-35.89
4.090000,-1648.6875,0.4582,0,3,,-35.89
4.092000,-1648.6250,0.4605,0,3,,-35.89
4.094000,-1648.5312,0.4602,0,3,,-35.89
4.096000,-1648.5312,0.4571,0,3,,-35.89
4.098000,-1648.5937,0.4520,0,3,,-35.89
4.100000,-1648.6250,0.4462,0,3,,-35.89
4.102000,-1648.7188,0.4414,0,3,,-35.89
4.104000,-1648.7188,0.4389,0,3,,-35.89
4.106000,-1648.6562,0.4393,0,3,,-35.89
4.108000,-1648.6562,0.4422,0,3,,-35.89
4.110000,-1648.6562,0.4463,0,3,,-35.89
4.112000,-1648.5937,0.4501,0,3,,-35.89
4.114000,-1648.5312,0.4521,0,3,,-35.89
4.116000,-1648.6250,0.4517,0,3,,-35.89
4.118000,-1648.6250,0.4491,0,3,,-35.89
4.120000,-1648.6562,0.4454,0,3,,-35.89
4.122000,-1648.6562,0.4421,0,3,,-35.89
4.124000,-1648.6875,0.4405,0,3,,-35.89
4.126000,-1648.6250,0.4415,0,3,,-35.89
4.128000,-1648.6562,0.4453,0,3,,-35.89
4.130000,-1648.7188,0.4510,0,3,,-35.89
4.132000,-1648.6562,0.4569,0,3,,-35.89
4.134000,-1648.5625,0.4611,0,3,,-35.89
4.136000,-1648.5312,0.4622,0,3,,-35.89
4.138000,-1648.5625,0.4592,0,3,,-35.89
4.140000,-1648.6562,0.4528,0,3,,-35.89
4.142000,-1648.6250,0.4443,0,3,,-35.89
4.144000,-1648.7188,0.4359,0,3,,-35.89
4.146000,-1648.6875,0.4298,0,3,,-35.89
4.148000,-1648.7188,0.4272,0,3,,-35.89
4.150000,-1648.6562,0.4287,0,3,,-35.89
4.152000,-1648.6875,0.4338,0,3,,-35.89
4.154000,-1648.5937,0.4411,0,3,,-35.89
4.156000,-1648.5312,0.4490,0,3,,-35.89
4.158000,-1648.6250,0.4565,0,3,,-35.89
4.160000,-1648.5625,0.4629,0,3,,-35.89
4.162000,-1648.6250,0.4683,0,3,,-35.89
4.164000,-1648.7188,0.4729,0,3,,-35.89
4.166000,-1648.6562,0.4771,0,3,,-35.89
4.168000,-1648.6562,0.4807,0,3,,-35.89
4.170000,-1648.5937,0.4828,0,3,,-35.89
4.172000,-1648.5937,0.4824,0,3,,-35.89
4.174000,-1648.5000,0.4789,0,3,,-35.89
4.176000,-1648.5312,0.4722,0,3,,-35.89
4.178000,-1648.5937,0.4632,0,3,,-35.89
4.180000,-1648.6562,0.4538,0,3,,-35.89
4.182000,-1648.6875,0.4458,0,3,,-35.89
4.184000,-1648.7188,0.4410,0,3,,-35.89
4.186000,-1648.6875,0.4401,0,3,,-35.89
4.188000,-1648.6562,0.4424,0,3,,-35.89
4.190000,-1648.5937,0.4466,0,3,,-35.89
4.192000,-1648.6250,0.4507,0,3,,-35.89
4.194000,-1648.5625,0.4529,0,3,,-35.89
4.196000,-1648.5000,0.4524,0,3,,-35.89
4.198000,-1648.6875,0.4493,0,3,,-35.89
4.200000,-1648.6250,0.4445,0,3,,-35.89
4.202000,-1648.7188,0.4395,0,3,,-35.89
4.204000,-1648.7812,0.4362,0,3,,-35.89
4.206000,-1648.5312,0.4356,0,3,,-35.89
4.208000,-1648.5937,0.4384,0,3,,-35.89
4.210000,-1648.5937,0.4449,0,3,,-35.89
4.212000,-1648.6562,0.4546,0,3,,-35.89
4.214000,-1648.6250,0.4664,0,3,,-35.89
4.216000,-1648.6250,0.4788,0,3,,-35.89
4.218000,-1648.5312,0.4896,0,3,,-35.89
4.220000,-1648.6250,0.4967,0,3,,-35.89
4.222000,-1648.5937,0.4981,0,3,,-35.89
4.224000,-1648.5312,0.4928,0,3,,-35.89
4.226000,-1648.5312,0.4811,0,3,,-35.89
4.228000,-1648.5625,0.4643,0,3,,-35.89
4.230000,-1648.6250,0.4452,0,3,,-35.89
4.232000,-1648.7500,0.4268,0,3,,-35.89
4.234000,-1648.6875,0.4118,0,3,,-35.89
4.236000,-1648.6250,0.4019,0,3,,-35.89
4.238000,-1648.6250,0.3974,0,3,,-35.89
4.240000,-1648.7188,0.3970,0,3,,-35.89
4.242000,-1648.6562,0.3990,0,3,,-35.89
4.244000,-1648.7188,0.4010,0,3,,-35.89
4.246000,-1648.5625,0.4012,0,3,,-35.89
4.248000,-1648.6250,0.3986,0,3,,-35.89
4.250000,-1648.6875,0.3933,0,3,,-35.89
4.252000,-1648.6875,0.3866,0,3,,-35.89
4.254000,-1648.6562,0.3802,0,3,,-35.89
4.256000,-1648.7500,0.3760,0,3,,-35.89
4.258000,-1648.6250,0.3754,0,3,,-35.89
4.260000,-1648.6562,0.3791,0,3,,-35.89
4.262000,-1648.6875,0.3869,0,3,,-35.89
4.264000,-1648.7188,0.3977,0,3,,-35.89
4.266000,-1648.6562,0.4097,0,3,,-35.89
4.268000,-1648.6562,0.4209,0,3,,-35.89
4.270000,-1648.5312,0.4294,0,3,,-35.89
4.272000,-1648.5625,0.4339,0,3,,-35.89
4.274000,-1648.5937,0.4340,0,3,,-35.89
4.276000,-1648.6562,0.4301,0,3,,-35.89
4.278000,-1648.6250,0.4230,0,3,,-35.89
4.280000,-1648.6562,0.4142,0,3,,-35.89
4.282000,-1648.6562,0.4048,0,3,,-35.89
4.284000,-1648.5937,0.3960,0,3,,-35.89
4.286000,-1648.7188,0.3886,0,3,,-35.89
4.288000,-1648.6875,0.3832,0,3,,-35.89
4.290000,-1648.6250,0.3799,0,3,,-35.89
4.292000,-1648.6250,0.3790,0,3,,-35.89
4.294000,-1648.5312,0.3805,0,3,,-35.89
4.296000,-1648.6875,0.3843,0,3,,-35.89
4.298000,-1648.7500,0.3900,0,3,,-35.89
4.300000,-1648.6250,0.3968,0,3,,-35.89
4.302000,-1648.6250,0.4036,0,3,,-35.89
4.304000,-1648.6875,0.4088,0,3,,-35.89
4.306000,-1648.5937,0.4112,0,3,,-35.89
4.308000,-1648.5000,0.4100,0,3,,-35.89
4.310000,-1648.6562,0.4052,0,3,,-35.89
4.312000,-1648.5625,0.3978,0,3,,-35.89
4.314000,-1648.6875,0.3892,0,3,,-35.89
4.316000,-1648.6562,0.3813,0,3,,-35.89
4.318000,-1648.6562,0.3754,0,3,,-35.89
4.320000,-1648.6250,0.3721,0,3,,-35.89
4.322000,-1648.7188,0.3714,0,3,,-35.89
4.324000,-1648.6250,0.3725,0,3,,-35.89
4.326000,-1648.5937,0.3745,0,3,,-35.89
4.328000,-1648.5937,0.3763,0,3,,-35.89
4.330000,-1648.7188,0.3773,0,3,,-35.89
4.332000,-1648.6250,0.3771,0,3,,-35.89
4.334000,-1648.6250,0.3757,0,3,,-35.89
4.336000,-1648.5625,0.3736,0,3,,-35.89
4.338000,-1648.5937,0.3714,0,3,,-35.89
4.340000,-1648.6250,0.3696,0,3,,-35.89
4.342000,-1648.7188,0.3690,0,3,,-35.89
4.344000,-1648.7188,0.3695,0,3,,-35.89
4.346000,-1648.6562,0.3708,0,3,,-35.89
4.348000,-1648.6250,0.3721,0,3,,-35.89
4.350000,-1648.5000,0.3726,0,3,,-35.89
4.352000,-1648.5625,0.3717,0,3,,-35.89
4.354000,-1648.6250,0.3696,0,3,,-35.89
4.356000,-1648.6562,0.3667,0,3,,-35.89
4.358000,-1648.6875,0.3638,0,3,,-35.89
4.360000,-1648.5625,0.3618,0,3,,-35.89
4.362000,-1648.6875,0.3608,0,3,,-35.89
4.364000,-1648.6875,0.3610,0,3,,-35.89
4.366000,-1648.5937,0.3616,0,3,,-35.89
4.368000,-1648.5312,0.3621,0,3,,-35.89
4.370000,-1648.6562,0.3618,0,3,,-35.89
4.372000,-1648.5937,0.3600,0,3,,-35.89
4.374000,-1648.6562,0.3566,0,3,,-35.89
4.376000,-1648.6875,0.3514,0,3,,-35.89
4.378000,-1648.5312,0.3445,0,3,,-35.89
4.380000,-1648.5937,0.3363,0,3,,-35.89
4.382000,-1648.6250,0.3276,0,3,,-35.89
4.384000,-1648.6875,0.3194,0,3,,-35.89
4.386000,-1648.7500,0.3127,0,3,,-35.89
4.388000,-1648.6562,0.3082,0,3,,-35.89
4.390000,-1648.7188,0.3059,0,3,,-35.89
4.392000,-1648.6250,0.3054,0,3,,-35.89
4.394000,-1648.5312,0.3060,0,3,,-35.89
4.396000,-1648.6250,0.3070,0,3,,-35.89
4.398000,-1648.6250,0.3078,0,3,,-35.89
4.400000,-1648.6875,0.3082,0,3,,-35.89
4.402000,-1648.6875,0.3081,0,3,,-35.89
4.404000,-1648.7188,0.3073,0,3,,-35.89
4.406000,-1648.6875,0.3055,0,3,,-35.89
4.408000,-1648.6250,0.3020,0,3,,-35.89
4.410000,-1648.5625,0.2966,0,3,,-35.89
4.412000,-1648.6875,0.2893,0,3,,-35.89
4.414000,-1648.5625,0.2808,0,3,,-35.89
4.416000,-1648.6250,0.2725,0,3,,-35.89
4.418000,-1648.7812,0.2662,0,3,,-35.89
4.420000,-1648.6562,0.2634,0,3,,-35.89
4.422000,-1648.7188,0.2652,0,3,,-35.89
4.424000,-1648.6562,0.2718,0,3,,-35.89
4.426000,-1648.7188,0.2822,0,3,,-35.89
4.428000,-1648.5937,0.2948,0,3,,-35.89
4.430000,-1648.6562,0.3075,0,3,,-35.89
4.432000,-1648.5937,0.3180,0,3,,-35.89
4.434000,-1648.5312,0.3248,0,3,,-35.89
4.436000,-1648.5312,0.3273,0,3,,-35.89
4.438000,-1648.5937,0.3260,0,3,,-35.89
4.440000,-1648.5625,0.3220,0,3,,-35.89
4.442000,-1648.6562,0.3171,0,3,,-35.89
4.444000,-1648.7500,0.3126,0,3,,-35.89
4.446000,-1648.5937,0.3090,0,3,,-35.89
4.448000,-1648.6250,0.3059,0,3,,-35.89
4.450000,-1648.6562,0.3021,0,3,,-35.89
4.452000,-1648.5312,0.2960,0,3,,-35.89
4.454000,-1648.5000,0.2865,0,3,,-35.89
4.456000,-1648.6250,0.2736,0,3,,-35.89
4.458000,-1648.5937,0.2584,0,3,,-35.89
4.460000,-1648.6875,0.2430,0,3,,-35.89
4.462000,-1648.7812,0.2299,0,3,,-35.89
4.464000,-1648.7500,0.2214,0,3,,-35.89
4.466000,-1648.6875,0.2188,0,3,,-35.89
4.468000,-1648.5625,0.2221,0,3,,-35.89
4.470000,-1648.6875,0.2303,0,3,,-35.89
4.472000,-1648.6875,0.2414,0,3,,-35.89
4.474000,-1648.6562,0.2531,0,3,,-35.89
4.476000,-1648.5312,0.2628,0,3,,-35.89
4.478000,-1648.6562,0.2687,0,3,,-35.89
4.480000,-1648.5625,0.2696,0,3,,-35.89
4.482000,-1648.5937,0.2658,0,3,,-35.89
4.484000,-1648.5937,0.2582,0,3,,-35.89
4.486000,-1648.7188,0.2489,0,3,,-35.89
4.488000,-1648.7188,0.2398,0,3,,-35.89
4.490000,-1648.6562,0.2326,0,3,,-35.89
4.492000,-1648.5625,0.2281,0,3,,-35.89
4.494000,-1648.6250,0.2264,0,3,,-35.89
4.496000,-1648.6875,0.2270,0,3,,-35.89
4.498000,-1648.5625,0.2287,0,3,,-35.89
4.500000,-1648.5937,0.2305,0,3,,-35.89
4.502000,-1648.7188,0.2314,0,3,,-35.89
4.504000,-1648.6562,0.2307,0,3,,-35.89
4.506000,-1648.6875,0.2280,0,3,,-35.89
4.508000,-1648.5625,0.2234,0,3,,-35.89
4.510000,-1648.5937,0.2173,0,3,,-35.89
4.512000,-1648.6250,0.2104,0,3,,-35.89
4.514000,-1648.6562,0.2035,0,3,,-35.89
4.516000,-1648.7500,0.1976,0,3,,-35.89
4.518000,-1648.6562,0.1929,0,3,,-35.89
4.520000,-1648.5937,0.1894,0,3,,-35.89
4.522000,-1648.6250,0.1867,0,3,,-35.89
4.524000,-1648.7500,0.1845,0,3,,-35.89
4.526000,-1648.6562,0.1823,0,3,,-35.89
4.528000,-1648.5625,0.1803,0,3,,-35.89
4.530000,-1648.6875,0.1787,0,3,,-35.89
4.532000,-1648.7188,0.1778,0,3,,-35.89
4.534000,-1648.6250,0.1782,0,3,,-35.89
4.536000,-1648.6875,0.1800,0,3,,-35.89
4.538000,-1648.5937,0.1830,0,3,,-35.89
4.540000,-1648.6562,0.1871,0,3,,-35.89
4.542000,-1648.5625,0.1917,0,3,,-35.89
4.544000,-1648.7188,0.1964,0,3,,-35.89
4.546000,-1648.6562,0.2008,0,3,,-35.89
4.548000,-1648.5625,0.2044,0,3,,-35.89
4.550000,-1648.6250,0.2070,0,3,,-35.89
4.552000,-1648.6562,0.2079,0,3,,-35.89
4.554000,-1648.5312,0.2070,0,3,,-35.89
4.556000,-1648.6562,0.2040,0,3,,-35.89
4.558000,-1648.5625,0.1990,0,3,,-35.89
4.560000,-1648.6562,0.1924,0,3,,-35.89
4.562000,-1648.5312,0.1847,0,3,,-35.89
4.564000,-1648.7188,0.1771,0,3,,-35.89
4.566000,-1648.6562,0.1704,0,3,,-35.89
4.568000,-1648.5937,0.1655,0,3,,-35.89
4.570000,-1648.6875,0.1628,0,3,,-35.89
4.572000,-1648.6875,0.1622,0,3,,-35.89
4.574000,-1648.5937,0.1631,0,3,,-35.89
4.576000,-1648.5312,0.1646,0,3,,-35.89
4.578000,-1648.6250,0.1660,0,3,,-35.89
4.580000,-1648.6562,0.1663,0,3,,-35.89
4.582000,-1648.6875,0.1650,0,3,,-35.89
4.584000,-1648.6562,0.1621,0,3,,-35.89
4.586000,-1648.6250,0.1573,0,3,,-35.89
4.588000,-1648.5625,0.1512,0,3,,-35.89
4.590000,-1648.5937,0.1443,0,3,,-35.89
4.592000,-1648.6250,0.1375,0,3,,-35.89
4.594000,-1648.7812,0.1317,0,3,,-35.89
4.596000,-1648.6875,0.1272,0,3,,-35.89
4.598000,-1648.6562,0.1242,0,3,,-35.89
4.600000,-1648.5312,0.1223,0,3,,-35.89
4.602000,-1648.5937,0.1212,0,3,,-35.89
4.604000,-1648.6562,0.1205,0,3,,-35.89
4.606000,-1648.7500,0.1203,0,3,,-35.89
4.608000,-1648.7188,0.1205,0,3,,-35.89
4.610000,-1648.6562,0.1208,0,3,,-35.89
4.612000,-1648.5625,0.1208,0,3,,-35.89
4.614000,-1648.5937,0.1201,0,3,,-35.89
4.616000,-1648.5937,0.1185,0,3,,-35.89
4.618000,-1648.6875,0.1157,0,3,,-35.89
4.620000,-1648.7188,0.1121,0,3,,-35.89
4.622000,-1648.6875,0.1076,0,3,,-35.89
4.624000,-1648.5625,0.1026,0,3,,-35.89
4.626000,-1648.6562,0.0973,0,3,,-35.89
4.628000,-1648.6875,0.0921,0,3,,-35.89
4.630000,-1648.7188,0.0875,0,3,,-35.89
4.632000,-1648.5937,0.0841,0,3,,-35.89
4.634000,-1648.5937,0.0826,0,3,,-35.89
4.636000,-1648.7188,0.0837,0,3,,-35.89
4.638000,-1648.6562,0.0876,0,3,,-35.89
4.640000,-1648.6562,0.0943,0,3,,-35.89
4.642000,-1648.6250,0.1033,0,3,,-35.89
4.644000,-1648.6875,0.1133,0,3,,-35.89
4.646000,-1648.6562,0.1228,0,3,,-35.89
4.648000,-1648.6250,0.1302,0,3,,-35.89
4.650000,-1648.4062,0.1341,0,3,,-35.89
4.652000,-1648.5625,0.1340,0,3,,-35.89
4.654000,-1648.6562,0.1299,0,3,,-35.89
4.656000,-1648.6875,0.1228,0,3,,-35.89
4.658000,-1648.6562,0.1136,0,3,,-35.89
4.660000,-1648.6562,0.1033,0,3,,-35.89
4.662000,-1648.5312,0.0929,0,3,,-35.89
4.664000,-1648.5625,0.0831,0,3,,-35.89
4.666000,-1648.6562,0.0749,0,3,,-35.89
4.668000,-1648.7188,0.0690,0,3,,-35.89
4.670000,-1648.6875,0.0660,0,3,,-35.89
4.672000,-1648.6875,0.0661,0,3,,-35.89
4.674000,-1648.5312,0.0688,0,3,,-35.89
4.676000,-1648.7188,0.0733,0,3,,-35.89
4.678000,-1648.6562,0.0785,0,3,,-35.89
4.680000,-1648.5312,0.0834,0,3,,-35.89
4.682000,-1648.5625,0.0872,0,3,,-35.89
4.684000,-1648.6250,0.0899,0,3,,-35.89
4.686000,-1648.7188,0.0914,0,3,,-35.89
4.688000,-1648.6875,0.0920,0,3,,-35.89
4.690000,-1648.5625,0.0918,0,3,,-35.89
4.692000,-1648.5937,0.0907,0,3,,-35.89
4.694000,-1648.5312,0.0884,0,3,,-35.89
4.696000,-1648.5937,0.0851,0,3,,-35.89
4.698000,-1648.6875,0.0808,0,3,,-35.89
4.700000,-1648.6250,0.0759,0,3,,-35.89
4.702000,-1648.5625,0.0711,0,3,,-35.89
4.704000,-1648.7188,0.0666,0,3,,-35.89
4.706000,-1648.6250,0.0628,0,3,,-35.89
4.708000,-1648.5625,0.0597,0,3,,-35.89
4.710000,-1648.6250,0.0573,0,3,,-35.89
4.712000,-1648.7188,0.0554,0,3,,-35.89
4.714000,-1648.5937,0.0537,0,3,,-35.89
4.716000,-1648.6250,0.0522,0,3,,-35.89
4.718000,-1648.5312,0.0508,0,3,,-35.89
4.720000,-1648.7188,0.0496,0,3,,-35.89
4.722000,-1648.5937,0.0487,0,3,,-35.89
4.724000,-1648.6562,0.0481,0,3,,-35.89
4.726000,-1648.7188,0.0478,0,3,,-35.89
4.728000,-1648.6250,0.0472,0,3,,-35.89
4.730000,-1648.5625,0.0457,0,3,,-35.89
4.732000,-1648.5937,0.0430,0,3,,-35.89
4.734000,-1648.6562,0.0390,0,3,,-35.89
4.736000,-1648.5937,0.0340,0,3,,-35.89
4.738000,-1648.6250,0.0290,0,3,,-35.89
4.740000,-1648.6562,0.0249,0,3,,-35.89
4.742000,-1648.7188,0.0224,0,3,,-35.89
4.744000,-1648.6875,0.0217,0,3,,-35.89
4.746000,-1648.6562,0.0223,0,3,,-35.89
4.748000,-1648.5937,0.0232,0,3,,-35.89
4.750000,-1648.5937,0.0233,0,3,,-35.89
4.752000,-1648.5625,0.0218,0,3,,-35.89
4.754000,-1648.6562,0.0186,0,3,,-35.89
4.756000,-1648.7188,0.0139,0,3,,-35.89
4.758000,-1648.6875,0.0087,0,3,,-35.89
4.760000,-1648.6562,0.0039,0,3,,-35.89
4.762000,-1648.5312,0.0003,0,3,,-35.89
4.764000,-1648.6562,-0.0014,0,3,,-35.89
4.766000,-1648.7188,-0.0010,0,3,,-35.89
4.768000,-1648.7188,0.0010,0,3,,-35.89
4.770000,-1648.6562,0.0039,0,3,,-35.89
4.772000,-1648.6250,0.0066,0,3,,-35.89
4.774000,-1648.5937,0.0078,0,3,,-35.89
4.776000,-1648.5625,0.0073,0,3,,-35.89
4.778000,-1648.6250,0.0052,0,3,,-35.89
4.780000,-1648.6250,0.0027,0,3,,-35.89
4.782000,-1648.7188,0.0013,0,3,,-35.89
4.784000,-1648.7188,0.0023,0,3,,-35.89
4.786000,-1648.6250,0.0064,0,3,,-35.89
4.788000,-1648.6250,0.0132,0,3,,-35.89
4.790000,-1648.5937,0.0217,0,3,,-35.89
4.792000,-1648.5312,0.0302,0,3,,-35.89
4.794000,-1648.5625,0.0369,0,3,,-35.89
4.796000,-1648.7500,0.0405,0,3,,-35.89
4.798000,-1648.5312,0.0401,0,3,,-35.89
4.800000,-1648.6250,0.0354,0,3,,-35.89
4.802000,-1648.5937,0.0270,0,3,,-35.89
4.804000,-1648.5625,0.0159,0,3,,-35.89
4.806000,-1648.5625,0.0040,0,3,,-35.89
4.808000,-1648.6562,-0.0065,0,3,,-35.89
4.810000,-1648.7188,-0.0140,0,3,,-35.89
4.812000,-1648.6562,-0.0172,0,3,,-35.89
4.814000,-1648.6562,-0.0161,0,3,,-35.89
4.816000,-1648.7188,-0.0119,0,3,,-35.89
4.818000,-1648.5937,-0.0064,0,3,,-35.89
4.820000,-1648.5625,-0.0018,0,3,,-35.89
4.822000,-1648.5625,0.0002,0,3,,-35.89
4.824000,-1648.5937,-0.0013,0,3,,-35.89
4.826000,-1648.6250,-0.0061,0,3,,-35.89
4.828000,-1648.7188,-0.0129,0,3,,-35.89
4.830000,-1648.6562,-0.0203,0,3,,-35.89
4.832000,-1648.6250,-0.0269,0,3,,-35.89
4.834000,-1648.6562,-0.0316,0,3,,-35.89
4.836000,-1648.6250,-0.0340,0,3,,-35.89
4.838000,-1648.7188,-0.0346,0,3,,-35.89
4.840000,-1648.6250,-0.0339,0,3,,-35.89
4.842000,-1648.6562,-0.0329,0,3,,-35.89
4.844000,-1648.5625,-0.0327,0,3,,-35.89
4.846000,-1648.6250,-0.0337,0,3,,-35.89
4.848000,-1648.7188,-0.0364,0,3,,-35.89
4.850000,-1648.6875,-0.0406,0,3,,-35.89
4.852000,-1648.6250,-0.0457,0,3,,-35.89
4.854000,-1648.5937,-0.0511,0,3,,-35.89
4.856000,-1648.6875,-0.0559,0,3,,-35.89
4.858000,-1648.6562,-0.0592,0,3,,-35.89
4.860000,-1648.7188,-0.0606,0,3,,-35.89
4.862000,-1648.7188,-0.0599,0,3,,-35.89
4.864000,-1648.6875,-0.0579,0,3,,-35.89
4.866000,-1648.6250,-0.0557,0,3,,-35.89
4.868000,-1648.5625,-0.0542,0,3,,-35.89
4.870000,-1648.6562,-0.0544,0,3,,-35.89
4.872000,-1648.6250,-0.0564,0,3,,-35.89
4.874000,-1648.6875,-0.0595,0,3,,-35.89
4.876000,-1648.6875,-0.0628,0,3,,-35.89
4.878000,-1648.7500,-0.0652,0,3,,-35.89
4.880000,-1648.7188,-0.0658,0,3,,-35.89
4.882000,-1648.5937,-0.0645,0,3,,-35.89
4.884000,-1648.6250,-0.0613,0,3,,-35.89
4.886000,-1648.6250,-0.0567,0,3,,-35.89
4.888000,-1648.5625,-0.0512,0,3,,-35.89
4.890000,-1648.6562,-0.0453,0,3,,-35.89
4.892000,-1648.6875,-0.0396,0,3,,-35.89
4.894000,-1648.8125,-0.0350,0,3,,-35.89
4.896000,-1648.6250,-0.0327,0,3,,-35.89
4.898000,-1648.5312,-0.0340,0,3,,-35.89
4.900000,-1648.6250,-0.0397,0,3,,-35.89
4.902000,-1648.5312,-0.0494,0,3,,-35.89
4.904000,-1648.6250,-0.0619,0,3,,-35.89
4.906000,-1648.7500,-0.0744,0,3,,-35.89
4.908000,-1648.6250,-0.0843,0,3,,-35.89
4.910000,-1648.6875,-0.0889,0,3,,-35.89
4.912000,-1648.7812,-0.0869,0,3,,-35.89
4.914000,-1648.7188,-0.0786,0,3,,-35.89
4.916000,-1648.6250,-0.0659,0,3,,-35.89
4.918000,-1648.6875,-0.0520,0,3,,-35.89
4.920000,-1648.6562,-0.0403,0,3,,-35.89
4.922000,-1648.4375,-0.0338,0,3,,-35.89
4.924000,-1648.5937,-0.0336,0,3,,-35.89
4.926000,-1648.6562,-0.0392,0,3,,-35.89
4.928000,-1648.5312,-0.0481,0,3,,-35.89
4.930000,-1648.6562,-0.0569,0,3,,-35.89
4.932000,-1648.7500,-0.0624,0,3,,-35.89
4.934000,-1648.8125,-0.0621,0,3,,-35.89
4.936000,-1648.6250,-0.0558,0,3,,-35.89
4.938000,-1648.6250,-0.0448,0,3,,-35.89
4.940000,-1648.5625,-0.0321,0,3,,-35.89
4.942000,-1648.5625,-0.0210,0,3,,-35.89
4.944000,-1648.5312,-0.0144,0,3,,-35.89
4.946000,-1648.5937,-0.0136,0,3,,-35.89
4.948000,-1648.5937,-0.0185,0,3,,-35.89
4.950000,-1648.5625,-0.0275,0,3,,-35.89
4.952000,-1648.6875,-0.0378,0,3,,-35.89
4.954000,-1648.6562,-0.0468,0,3,,-35.89
4.956000,-1648.6875,-0.0523,0,3,,-35.89
4.958000,-1648.6250,-0.0531,0,3,,-35.89
4.960000,-1648.6562,-0.0495,0,3,,-35.89
4.962000,-1648.6250,-0.0427,0,3,,-35.89
4.964000,-1648.5937,-0.0350,0,3,,-35.89
4.966000,-1648.5312,-0.0286,0,3,,-35.89
4.968000,-1648.5625,-0.0253,0,3,,-35.89
4.970000,-1648.5937,-0.0259,0,3,,-35.89
4.972000,-1648.6875,-0.0306,0,3,,-35.89
4.974000,-1648.5937,-0.0385,0,3,,-35.89
4.976000,-1648.6562,-0.0482,0,3,,-35.89
4.978000,-1648.6562,-0.0581,0,3,,-35.89
4.980000,-1648.6562,-0.0670,0,3,,-35.89
4.982000,-1648.6562,-0.0736,0,3,,-35.89
4.984000,-1648.5625,-0.0773,0,3,,-35.89
4.986000,-1648.6250,-0.0779,0,3,,-35.89
4.988000,-1648.7188,-0.0756,0,3,,-35.89
4.990000,-1648.7188,-0.0711,0,3,,-35.89
4.992000,-1648.6562,-0.0654,0,3,,-35.89
4.994000,-1648.5312,-0.0596,0,3,,-35.89
4.996000,-1648.5625,-0.0545,0,3,,-35.89
4.998000,-1648.6250,-0.0505,0,3,,-35.89
5.000000,-1648.6875,-0.0475,0,3,,-35.89
5.002000,-1648.7188,-0.0456,0,3,,-35.89
5.004000,-1648.6875,-0.0446,0,3,,-35.89
5.006000,-1648.5000,-0.0448,0,3,,-35.89
5.008000,-1648.5312,-0.0465,0,3,,-35.89
5.010000,-1648.5937,-0.0498,0,3,,-35.89
5.012000,-1648.6562,-0.0546,0,3,,-35.89
5.014000,-1648.7188,-0.0600,0,3,,-35.89
5.016000,-1648.6562,-0.0652,0,3,,-35.89
5.018000,-1648.6562,-0.0693,0,3,,-35.89
5.020000,-1648.5625,-0.0714,0,3,,-35.89
5.022000,-1648.6250,-0.0709,0,3,,-35.89
5.024000,-1648.6562,-0.0676,0,3,,-35.89
5.026000,-1648.6875,-0.0620,0,3,,-35.89
5.028000,-1648.6562,-0.0550,0,3,,-35.89
5.030000,-1648.5625,-0.0481,0,3,,-35.89
5.032000,-1648.6250,-0.0430,0,3,,-35.89
5.034000,-1648.6250,-0.0413,0,3,,-35.89
5.036000,-1648.6250,-0.0438,0,3,,-35.89
5.038000,-1648.5000,-0.0506,0,3,,-35.89
5.040000,-1648.6875,-0.0607,0,3,,-35.89
5.042000,-1648.6875,-0.0722,0,3,,-35.89
5.044000,-1648.6562,-0.0831,0,3,,-35.89
5.046000,-1648.6875,-0.0913,0,3,,-35.89
5.048000,-1648.6562,-0.0956,0,3,,-35.89
5.050000,-1648.6562,-0.0953,0,3,,-35.89
5.052000,-1648.5937,-0.0907,0,3,,-35.89
5.054000,-1648.6250,-0.0825,0,3,,-35.89
5.056000,-1648.7500,-0.0721,0,3,,-35.89
5.058000,-1648.6562,-0.0610,0,3,,-35.89
5.060000,-1648.6875,-0.0509,0,3,,-35.89
5.062000,-1648.5312,-0.0434,0,3,,-35.89
5.064000,-1648.5625,-0.0395,0,3,,-35.89
5.066000,-1648.5312,-0.0394,0,3,,-35.89
5.068000,-1648.5937,-0.0428,0,3,,-35.89
5.070000,-1648.7188,-0.0486,0,3,,-35.89
5.072000,-1648.6875,-0.0556,0,3,,-35.89
5.074000,-1648.6562,-0.0629,0,3,,-35.89
5.076000,-1648.5312,-0.0699,0,3,,-35.89
5.078000,-1648.7188,-0.0764,0,3,,-35.89
5.080000,-1648.6562,-0.0820,0,3,,-35.89
5.082000,-1648.6562,-0.0866,0,3,,-35.89
5.084000,-1648.5625,-0.0895,0,3,,-35.89
5.086000,-1648.6250,-0.0901,0,3,,-35.89
5.088000,-1648.7188,-0.0878,0,3,,-35.89
5.090000,-1648.7188,-0.0825,0,3,,-35.89
5.092000,-1648.6562,-0.0745,0,3,,-35.89
5.094000,-1648.5312,-0.0650,0,3,,-35.89
5.096000,-1648.7188,-0.0557,0,3,,-35.89
5.098000,-1648.6875,-0.0484,0,3,,-35.89
5.100000,-1648.5937,-0.0447,0,3,,-35.89
5.102000,-1648.4688,-0.0452,0,3,,-35.89
5.104000,-1648.5625,-0.0498,0,3,,-35.89
5.106000,-1648.6562,-0.0570,0,3,,-35.89
5.108000,-1648.7500,-0.0649,0,3,,-35.89
5.110000,-1648.6875,-0.0717,0,3,,-35.89
5.112000,-1648.6250,-0.0759,0,3,,-35.89
5.114000,-1648.5625,-0.0765,0,3,,-35.89
5.116000,-1648.6562,-0.0734,0,3,,-35.89
5.118000,-1648.6562,-0.0669,0,3,,-35.89
5.120000,-1648.5937,-0.0574,0,3,,-35.89
5.122000,-1648.6250,-0.0459,0,3,,-35.89
5.124000,-1648.6875,-0.0336,0,3,,-35.89
5.126000,-1648.6250,-0.0219,0,3,,-35.89
5.128000,-1648.5000,-0.0125,0,3,,-35.89
5.130000,-1648.5625,-0.0070,0,3,,-35.89
5.132000,-1648.5625,-0.0064,0,3,,-35.89
5.134000,-1648.5312,-0.0107,0,3,,-35.89
5.136000,-1648.6250,-0.0191,0,3,,-35.89
5.138000,-1648.5937,-0.0295,0,3,,-35.89
5.140000,-1648.6250,-0.0398,0,3,,-35.89
5.142000,-1648.6250,-0.0479,0,3,,-35.89
5.144000,-1648.6875,-0.0522,0,3,,-35.89
5.146000,-1648.6562,-0.0524,0,3,,-35.89
5.148000,-1648.5937,-0.0494,0,3,,-35.89
5.150000,-1648.5625,-0.0447,0,3,,-35.89
5.152000,-1648.5625,-0.0406,0,3,,-35.89
5.154000,-1648.5937,-0.0387,0,3,,-35.89
5.156000,-1648.6562,-0.0400,0,3,,-35.89
5.158000,-1648.5625,-0.0446,0,3,,-35.89
5.160000,-1648.6875,-0.0518,0,3,,-35.89
5.162000,-1648.6250,-0.0601,0,3,,-35.89
5.164000,-1648.6562,-0.0682,0,3,,-35.89
5.166000,-1648.7188,-0.0749,0,3,,-35.89
5.168000,-1648.5625,-0.0797,0,3,,-35.89
5.170000,-1648.6250,-0.0822,0,3,,-35.89
5.172000,-1648.6250,-0.0827,0,3,,-35.89
5.174000,-1648.6562,-0.0815,0,3,,-35.89
5.176000,-1648.6875,-0.0788,0,3,,-35.89
5.178000,-1648.5937,-0.0751,0,3,,-35.89
5.180000,-1648.7188,-0.0706,0,3,,-35.89
5.182000,-1648.6562,-0.0659,0,3,,-35.89
5.184000,-1648.6250,-0.0618,0,3,,-35.89
5.186000,-1648.6875,-0.0590,0,3,,-35.89
5.188000,-1648.5312,-0.0585,0,3,,-35.89
5.190000,-1648.5625,-0.0606,0,3,,-35.89
5.192000,-1648.6250,-0.0651,0,3,,-35.89
5.194000,-1648.6562,-0.0713,0,3,,-35.89
5.196000,-1648.6250,-0.0776,0,3,,-35.89
5.198000,-1648.7188,-0.0825,0,3,,-35.89
5.200000,-1648.6875,-0.0851,0,3,,-35.89
5.202000,-1648.7188,-0.0850,0,3,,-35.89
5.204000,-1648.6562,-0.0828,0,3,,-35.89
5.206000,-1648.6250,-0.0799,0,3,,-35.89
5.208000,-1648.6250,-0.0779,0,3,,-35.89
5.210000,-1648.5312,-0.0780,0,3,,-35.89
5.212000,-1648.5937,-0.0804,0,3,,-35.89
5.214000,-1648.6250,-0.0844,0,3,,-35.89
5.216000,-1648.7500,-0.0882,0,3,,-35.89
5.218000,-1648.7188,-0.0901,0,3,,-35.89
5.220000,-1648.6875,-0.0884,0,3,,-35.89
5.222000,-1648.7812,-0.0829,0,3,,-35.89
5.224000,-1648.5625,-0.0743,0,3,,-35.89
5.226000,-1648.5000,-0.0641,0,3,,-35.89
5.228000,-1648.6250,-0.0545,0,3,,-35.89
5.230000,-1648.5625,-0.0471,0,3,,-35.89
5.232000,-1648.7188,-0.0433,0,3,,-35.89
5.234000,-1648.5625,-0.0432,0,3,,-35.89
5.236000,-1648.6250,-0.0464,0,3,,-35.89
5.238000,-1648.5625,-0.0516,0,3,,-35.89
5.240000,-1648.6250,-0.0572,0,3,,-35.89
5.242000,-1648.6875,-0.0617,0,3,,-35.89
5.244000,-1648.6562,-0.0640,0,3,,-35.89
5.246000,-1648.7500,-0.0643,0,3,,-35.89
5.248000,-1648.5625,-0.0636,0,3,,-35.89
5.250000,-1648.5312,-0.0635,0,3,,-35.89
5.252000,-1648.5937,-0.0656,0,3,,-35.89
5.254000,-1648.6250,-0.0708,0,3,,-35.89
5.256000,-1648.5937,-0.0788,0,3,,-35.89
5.258000,-1648.6562,-0.0881,0,3,,-35.89
5.260000,-1648.7188,-0.0969,0,3,,-35.89
5.262000,-1648.8750,-0.1029,0,3,,-35.89
5.264000,-1648.5625,-0.1050,0,3,,-35.89
5.266000,-1648.6562,-0.1029,0,3,,-35.89
5.268000,-1648.5937,-0.0972,0,3,,-35.89
5.270000,-1648.6250,-0.0893,0,3,,-35.89
5.272000,-1648.5625,-0.0809,0,3,,-35.89
5.274000,-1648.6875,-0.0734,0,3,,-35.89
5.276000,-1648.6250,-0.0679,0,3,,-35.89
5.278000,-1648.7500,-0.0651,0,3,,-35.89
5.280000,-1648.6562,-0.0656,0,3,,-35.89
5.282000,-1648.6250,-0.0696,0,3,,-35.89
5.284000,-1648.5625,-0.0768,0,3,,-35.89
5.286000,-1648.5625,-0.0861,0,3,,-35.89
5.288000,-1648.5937,-0.0961,0,3,,-35.89
5.290000,-1648.6250,-0.1046,0,3,,-35.89
5.292000,-1648.8125,-0.1095,0,3,,-35.89
5.294000,-1648.6562,-0.1095,0,3,,-35.89
5.296000,-1648.7500,-0.1044,0,3,,-35.89
5.298000,-1648.6250,-0.0950,0,3,,-35.89
5.300000,-1648.6250,-0.0834,0,3,,-35.89
5.302000,-1648.6250,-0.0720,0,3,,-35.89
5.304000,-1648.6250,-0.0633,0,3,,-35.89
5.306000,-1648.5312,-0.0588,0,3,,-35.89
5.308000,-1648.5937,-0.0590,0,3,,-35.89
5.310000,-1648.5312,-0.0633,0,3,,-35.89
5.312000,-1648.6250,-0.0701,0,3,,-35.89
5.314000,-1648.6875,-0.0770,0,3,,-35.89
5.316000,-1648.7188,-0.0821,0,3,,-35.89
5.318000,-1648.6562,-0.0841,0,3,,-35.89
5.320000,-1648.6562,-0.0829,0,3,,-35.89
5.322000,-1648.6562,-0.0791,0,3,,-35.89
5.324000,-1648.5312,-0.0743,0,3,,-35.89
5.326000,-1648.5937,-0.0701,0,3,,-35.89
5.328000,-1648.4688,-0.0677,0,3,,-35.89
5.330000,-1648.6250,-0.0677,0,3,,-35.89
5.332000,-1648.6562,-0.0699,0,3,,-35.89
5.334000,-1648.6875,-0.0741,0,3,,-35.89
5.336000,-1648.7188,-0.0797,0,3,,-35.89
5.338000,-1648.6250,-0.0864,0,3,,-35.89
5.340000,-1648.5937,-0.0942,0,3,,-35.89
5.342000,-1648.5937,-0.1025,0,3,,-35.89
5.344000,-1648.6250,-0.1106,0,3,,-35.89
5.346000,-1648.5937,-0.1174,0,3,,-35.89
5.348000,-1648.5937,-0.1212,0,3,,-35.89
5.350000,-1648.6875,-0.1209,0,3,,-35.89
5.352000,-1648.7500,-0.1159,0,3,,-35.89
5.354000,-1648.7188,-0.1070,0,3,,-35.89
5.356000,-1648.6875,-0.0961,0,3,,-35.89
5.358000,-1648.5625,-0.0861,0,3,,-35.89
5.360000,-1648.5312,-0.0800,0,3,,-35.89
5.362000,-1648.5625,-0.0796,0,3,,-35.89
5.364000,-1648.5625,-0.0859,0,3,,-35.89
5.366000,-1648.6562,-0.0977,0,3,,-35.89
5.368000,-1648.6250,-0.1133,0,3,,-35.89
5.370000,-1648.6250,-0.1298,0,3,,-35.89
5.372000,-1648.7500,-0.1450,0,3,,-35.89
5.374000,-1648.7500,-0.1573,0,3,,-35.89
5.376000,-1648.6562,-0.1662,0,3,,-35.89
5.378000,-1648.6562,-0.1719,0,3,,-35.89
5.380000,-1648.8125,-0.1754,0,3,,-35.89
5.382000,-1648.6250,-0.1776,0,3,,-35.89
5.384000,-1648.5625,-0.1790,0,3,,-35.89
5.386000,-1648.6562,-0.1793,0,3,,-35.89
5.388000,-1648.7188,-0.1777,0,3,,-35.89
5.390000,-1648.6562,-0.1733,0,3,,-35.89
5.392000,-1648.7188,-0.1653,0,3,,-35.89
5.394000,-1648.8125,-0.1541,0,3,,-35.89
5.396000,-1648.6250,-0.1410,0,3,,-35.89
5.398000,-1648.6562,-0.1283,0,3,,-35.89
5.400000,-1648.6250,-0.1185,0,3,,-35.89
5.402000,-1648.5000,-0.1134,0,3,,-35.89
5.404000,-1648.5312,-0.1138,0,3,,-35.89
5.406000,-1648.5625,-0.1186,0,3,,-35.89
5.408000,-1648.7188,-0.1258,0,3,,-35.89
5.410000,-1648.5625,-0.1327,0,3,,-35.89
5.412000,-1648.7188,-0.1369,0,3,,-35.89
5.414000,-1648.7500,-0.1374,0,3,,-35.89
5.416000,-1648.5625,-0.1343,0,3,,-35.89
5.418000,-1648.6250,-0.1293,0,3,,-35.89
5.420000,-1648.5937,-0.1248,0,3,,-35.89
5.422000,-1648.5937,-0.1233,0,3,,-35.89
5.424000,-1648.5625,-0.1264,0,3,,-35.89
5.426000,-1648.6250,-0.1347,0,3,,-35.89
5.428000,-1648.6250,-0.1475,0,3,,-35.89
5.430000,-1648.5312,-0.1626,0,3,,-35.89
5.432000,-1648.6875,-0.1767,0,3,,-35.89
5.434000,-1648.6875,-0.1864,0,3,,-35.89
5.436000,-1648.6875,-0.1883,0,3,,-35.89
5.438000,-1648.7500,-0.1799,0,3,,-35.89
5.440000,-1648.5625,-0.1601,0,3,,-35.89
5.442000,-1648.5312,-0.1294,0,3,,-35.89
5.444000,-1648.6250,-0.0898,0,3,,-35.89
5.446000,-1648.5000,-0.0447,0,3,,-35.89
5.448000,-1648.6875,-0.1077,0,4,,-37.23
5.450000,-1648.6562,-0.1112,0,4,,-37.23
5.452000,-1648.7500,-0.1151,0,4,,-37.23
5.454000,-1648.5312,-0.1183,0,4,,-37.23
5.456000,-1648.6875,-0.1201,0,4,,-37.23
5.458000,-1648.6875,-0.1199,0,4,,-37.23
5.460000,-1648.6875,-0.1176,0,4,,-37.23
5.462000,-1648.6562,-0.1140,0,4,,-37.23
5.464000,-1648.6562,-0.1104,0,4,,-37.23
5.466000,-1648.5000,-0.1083,0,4,,-37.23
5.468000,-1648.5625,-0.1090,0,4,,-37.23
5.470000,-1648.5937,-0.1130,0,4,,-37.23
5.472000,-1648.7188,-0.1199,0,4,,-37.23
5.474000,-1648.7188,-0.1281,0,4,,-37.23
5.476000,-1648.7188,-0.1359,0,4,,-37.23
5.478000,-1648.7500,-0.1415,0,4,,-37.23
5.480000,-1648.6250,-0.1436,0,4,,-37.23
5.482000,-1648.6562,-0.1420,0,4,,-37.23
5.484000,-1648.6250,-0.1369,0,4,,-37.23
5.486000,-1648.5937,-0.1293,0,4,,-37.23
5.488000,-1648.6250,-0.1203,0,4,,-37.23
5.490000,-1648.6562,-0.1109,0,4,,-37.23
5.492000,-1648.6250,-0.1022,0,4,,-37.23
5.494000,-1648.6875,-0.0947,0,4,,-37.23
5.496000,-1648.7500,-0.0889,0,4,,-37.23
5.498000,-1648.6250,-0.0853,0,4,,-37.23
5.500000,-1648.5625,-0.0843,0,4,,-37.23
5.502000,-1648.5937,-0.0858,0,4,,-37.23
5.504000,-1648.5312,-0.0899,0,4,,-37.23
5.506000,-1648.5937,-0.0958,0,4,,-37.23
5.508000,-1648.6562,-0.1026,0,4,,-37.23
5.510000,-1648.6250,-0.1091,0,4,,-37.23
5.512000,-1648.7188,-0.1143,0,4,,-37.23
5.514000,-1648.7188,-0.1175,0,4,,-37.23
5.516000,-1648.7812,-0.1185,0,4,,-37.23
5.518000,-1648.5312,-0.1179,0,4,,-37.23
5.520000,-1648.6562,-0.1163,0,4,,-37.23
5.522000,-1648.6875,-0.1146,0,4,,-37.23
5.524000,-1648.5000,-0.1135,0,4,,-37.23
5.526000,-1648.6250,-0.1131,0,4,,-37.23
5.528000,-1648.6250,-0.1134,0,4,,-37.23
5.530000,-1648.7812,-0.1140,0,4,,-37.23
5.532000,-1648.6562,-0.1145,0,4,,-37.23
5.534000,-1648.7188,-0.1147,0,4,,-37.23
5.536000,-1648.6562,-0.1144,0,4,,-37.23
5.538000,-1648.6562,-0.1138,0,4,,-37.23
5.540000,-1648.6250,-0.1129,0,4,,-37.23
5.542000,-1648.5625,-0.1116,0,4,,-37.23
5.544000,-1648.7812,-0.1097,0,4,,-37.23
5.546000,-1648.5312,-0.1071,0,4,,-37.23
5.548000,-1648.6250,-0.1034,0,4,,-37.23
5.550000,-1648.6250,-0.0984,0,4,,-37.23
5.552000,-1648.6250,-0.0917,0,4,,-37.23
5.554000,-1648.7500,-0.0833,0,4,,-37.23
5.556000,-1648.6562,-0.0736,0,4,,-37.23
5.558000,-1648.6875,-0.0636,0,4,,-37.23
5.560000,-1648.5625,-0.0548,0,4,,-37.23
5.562000,-1648.5625,-0.0490,0,4,,-37.23
5.564000,-1648.5625,-0.0478,0,4,,-37.23
5.566000,-1648.4375,-0.0518,0,4,,-37.23
5.568000,-1648.5937,-0.0608,0,4,,-37.23
5.570000,-1648.6250,-0.0730,0,4,,-37.23
5.572000,-1648.7812,-0.0860,0,4,,-37.23
5.574000,-1648.6875,-0.0971,0,4,,-37.23
5.576000,-1648.6250,-0.1040,0,4,,-37.23
5.578000,-1648.6250,-0.1054,0,4,,-37.23
5.580000,-1648.8438,-0.1017,0,4,,-37.23
5.582000,-1648.5937,-0.0941,0,4,,-37.23
5.584000,-1648.5625,-0.0851,0,4,,-37.23
5.586000,-1648.4688,-0.0775,0,4,,-37.23
5.588000,-1648.5937,-0.0732,0,4,,-37.23
5.590000,-1648.6250,-0.0732,0,4,,-37.23
5.592000,-1648.7500,-0.0772,0,4,,-37.23
5.594000,-1648.7188,-0.0840,0,4,,-37.23
5.596000,-1648.6562,-0.0915,0,4,,-37.23
5.598000,-1648.6250,-0.0978,0,4,,-37.23
5.600000,-1648.6562,-0.1013,0,4,,-37.23
5.602000,-1648.6562,-0.1012,0,4,,-37.23
5.604000,-1648.5625,-0.0974,0,4,,-37.23
5.606000,-1648.6250,-0.0903,0,4,,-37.23
5.608000,-1648.6875,-0.0813,0,4,,-37.23
5.610000,-1648.6250,-0.0720,0,4,,-37.23
5.612000,-1648.6875,-0.0638,0,4,,-37.23
5.614000,-1648.6562,-0.0578,0,4,,-37.23
5.616000,-1648.4688,-0.0546,0,4,,-37.23
5.618000,-1648.6875,-0.0537,0,4,,-37.23
5.620000,-1648.6250,-0.0543,0,4,,-37.23
5.622000,-1648.5625,-0.0553,0,4,,-37.23
5.624000,-1648.6875,-0.0557,0,4,,-37.23
5.626000,-1648.5937,-0.0553,0,4,,-37.23
5.628000,-1648.6250,-0.0542,0,4,,-37.23
5.630000,-1648.4375,-0.0530,0,4,,-37.23
5.632000,-1648.7188,-0.0522,0,4,,-37.23
5.634000,-1648.6875,-0.0520,0,4,,-37.23
5.636000,-1648.6562,-0.0525,0,4,,-37.23
5.638000,-1648.6250,-0.0535,0,4,,-37.23
5.640000,-1648.6250,-0.0548,0,4,,-37.23
5.642000,-1648.5937,-0.0563,0,4,,-37.23
5.644000,-1648.5000,-0.0577,0,4,,-37.23
5.646000,-1648.5625,-0.0589,0,4,,-37.23
5.648000,-1648.6250,-0.0597,0,4,,-37.23
5.650000,-1648.7500,-0.0600,0,4,,-37.23
5.652000,-1648.6562,-0.0598,0,4,,-37.23
5.654000,-1648.7188,-0.0597,0,4,,-37.23
5.656000,-1648.6562,-0.0603,0,4,,-37.23
5.658000,-1648.5625,-0.0623,0,4,,-37.23
5.660000,-1648.5625,-0.0659,0,4,,-37.23
5.662000,-1648.5625,-0.0708,0,4,,-37.23
5.664000,-1648.5625,-0.0758,0,4,,-37.23
5.666000,-1648.8125,-0.0794,0,4,,-37.23
5.668000,-1648.5937,-0.0804,0,4,,-37.23
5.670000,-1648.6562,-0.0778,0,4,,-37.23
5.672000,-1648.7500,-0.0717,0,4,,-37.23
5.674000,-1648.6250,-0.0626,0,4,,-37.23
5.676000,-1648.6562,-0.0522,0,4,,-37.23
5.678000,-1648.5937,-0.0420,0,4,,-37.23
5.680000,-1648.5937,-0.0339,0,4,,-37.23
5.682000,-1648.5312,-0.0292,0,4,,-37.23
5.684000,-1648.5937,-0.0287,0,4,,-37.23
5.686000,-1648.5625,-0.0326,0,4,,-37.23
5.688000,-1648.5937,-0.0401,0,4,,-37.23
5.690000,-1648.6562,-0.0501,0,4,,-37.23
5.692000,-1648.7188,-0.0609,0,4,,-37.23
5.694000,-1648.7188,-0.0709,0,4,,-37.23
5.696000,-1648.6250,-0.0788,0,4,,-37.23
5.698000,-1648.6250,-0.0837,0,4,,-37.23
5.700000,-1648.6875,-0.0853,0,4,,-37.23
5.702000,-1648.6562,-0.0841,0,4,,-37.23
5.704000,-1648.5937,-0.0810,0,4,,-37.23
5.706000,-1648.6250,-0.0772,0,4,,-37.23
5.708000,-1648.6875,-0.0740,0,4,,-37.23
5.710000,-1648.5937,-0.0721,0,4,,-37.23
5.712000,-1648.7188,-0.0717,0,4,,-37.23
5.714000,-1648.6875,-0.0724,0,4,,-37.23
5.716000,-1648.7188,-0.0732,0,4,,-37.23
5.718000,-1648.6250,-0.0731,0,4,,-37.23
5.720000,-1648.5937,-0.0712,0,4,,-37.23
5.722000,-1648.6875,-0.0668,0,4,,-37.23
5.724000,-1648.5937,-0.0600,0,4,,-37.23
5.726000,-1648.5937,-0.0513,0,4,,-37.23
5.728000,-1648.5937,-0.0416,0,4,,-37.23
5.730000,-1648.6250,-0.0322,0,4,,-37.23
5.732000,-1648.7188,-0.0241,0,4,,-37.23
5.734000,-1648.6875,-0.0184,0,4,,-37.23
5.736000,-1648.6250,-0.0158,0,4,,-37.23
5.738000,-1648.5000,-0.0164,0,4,,-37.23
5.740000,-1648.5625,-0.0198,0,4,,-37.23
5.742000,-1648.5312,-0.0249,0,4,,-37.23
5.744000,-1648.6250,-0.0303,0,4,,-37.23
5.746000,-1648.6250,-0.0342,0,4,,-37.23
5.748000,-1648.6562,-0.0352,0,4,,-37.23
5.750000,-1648.6875,-0.0327,0,4,,-37.23
5.752000,-1648.6250,-0.0269,0,4,,-37.23
5.754000,-1648.5937,-0.0186,0,4,,-37.23
5.756000,-1648.6250,-0.0097,0,4,,-37.23
5.758000,-1648.7500,-0.0020,0,4,,-37.23
5.760000,-1648.4375,0.0025,0,4,,-37.23
5.762000,-1648.5312,0.0027,0,4,,-37.23
5.764000,-1648.5312,-0.0019,0,4,,-37.23
5.766000,-1648.5000,-0.0103,0,4,,-37.23
5.768000,-1648.6250,-0.0203,0,4,,-37.23
5.770000,-1648.7188,-0.0294,0,4,,-37.23
5.772000,-1648.6562,-0.0351,0,4,,-37.23
5.774000,-1648.8125,-0.0356,0,4,,-37.23
5.776000,-1648.6562,-0.0309,0,4,,-37.23
5.778000,-1648.5937,-0.0222,0,4,,-37.23
5.780000,-1648.4688,-0.0119,0,4,,-37.23
5.782000,-1648.5312,-0.0026,0,4,,-37.23
5.784000,-1648.5625,0.0037,0,4,,-37.23
5.786000,-1648.5312,0.0058,0,4,,-37.23
5.788000,-1648.5937,0.0040,0,4,,-37.23
5.790000,-1648.6562,-0.0008,0,4,,-37.23
5.792000,-1648.7500,-0.0067,0,4,,-37.23
5.794000,-1648.6250,-0.0124,0,4,,-37.23
5.796000,-1648.5937,-0.0167,0,4,,-37.23
5.798000,-1648.6562,-0.0192,0,4,,-37.23
5.800000,-1648.6250,-0.0202,0,4,,-37.23
5.802000,-1648.4062,-0.0204,0,4,,-37.23
5.804000,-1648.6250,-0.0204,0,4,,-37.23
5.806000,-1648.6562,-0.0207,0,4,,-37.23
5.808000,-1648.5937,-0.0213,0,4,,-37.23
5.810000,-1648.6562,-0.0221,0,4,,-37.23
5.812000,-1648.7188,-0.0230,0,4,,-37.23
5.814000,-1648.6250,-0.0236,0,4,,-37.23
5.816000,-1648.6875,-0.0241,0,4,,-37.23
5.818000,-1648.6562,-0.0248,0,4,,-37.23
5.820000,-1648.5625,-0.0264,0,4,,-37.23
5.822000,-1648.5000,-0.0290,0,4,,-37.23
5.824000,-1648.5937,-0.0326,0,4,,-37.23
5.826000,-1648.6250,-0.0366,0,4,,-37.23
5.828000,-1648.6875,-0.0396,0,4,,-37.23
5.830000,-1648.6562,-0.0405,0,4,,-37.23
5.832000,-1648.7812,-0.0380,0,4,,-37.23
5.834000,-1648.6875,-0.0316,0,4,,-37.23
5.836000,-1648.5937,-0.0216,0,4,,-37.23
5.838000,-1648.5937,-0.0093,0,4,,-37.23
5.840000,-1648.5312,0.0037,0,4,,-37.23
5.842000,-1648.5625,0.0153,0,4,,-37.23
5.844000,-1648.5312,0.0238,0,4,,-37.23
5.846000,-1648.6250,0.0279,0,4,,-37.23
5.848000,-1648.5937,0.0269,0,4,,-37.23
5.850000,-1648.5625,0.0211,0,4,,-37.23
5.852000,-1648.6562,0.0114,0,4,,-37.23
5.854000,-1648.6250,-0.0006,0,4,,-37.23
5.856000,-1648.6250,-0.0129,0,4,,-37.23
5.858000,-1648.7188,-0.0239,0,4,,-37.23
5.860000,-1648.5625,-0.0323,0,4,,-37.23
5.862000,-1648.5625,-0.0375,0,4,,-37.23
5.864000,-1648.6562,-0.0396,0,4,,-37.23
5.866000,-1648.6250,-0.0392,0,4,,-37.23
5.868000,-1648.6250,-0.0372,0,4,,-37.23
5.870000,-1648.7188,-0.0346,0,4,,-37.23
5.872000,-1648.7500,-0.0326,0,4,,-37.23
5.874000,-1648.6562,-0.0319,0,4,,-37.23
5.876000,-1648.6562,-0.0330,0,4,,-37.23
5.878000,-1648.5937,-0.0361,0,4,,-37.23
5.880000,-1648.5312,-0.0407,0,4,,-37.23
5.882000,-1648.5937,-0.0459,0,4,,-37.23
5.884000,-1648.6250,-0.0505,0,4,,-37.23
5.886000,-1648.9062,-0.0533,0,4,,-37.23
5.888000,-1648.6250,-0.0539,0,4,,-37.23
5.890000,-1648.6875,-0.0521,0,4,,-37.23
5.892000,-1648.6875,-0.0486,0,4,,-37.23
5.894000,-1648.6250,-0.0441,0,4,,-37.23
5.896000,-1648.6562,-0.0393,0,4,,-37.23
5.898000,-1648.5937,-0.0345,0,4,,-37.23
5.900000,-1648.6562,-0.0298,0,4,,-37.23
5.902000,-1648.6562,-0.0254,0,4,,-37.23
5.904000,-1648.5937,-0.0212,0,4,,-37.23
5.906000,-1648.6250,-0.0177,0,4,,-37.23
5.908000,-1648.6250,-0.0152,0,4,,-37.23
5.910000,-1648.7188,-0.0141,0,4,,-37.23
5.912000,-1648.6562,-0.0144,0,4,,-37.23
5.914000,-1648.7188,-0.0161,0,4,,-37.23
5.916000,-1648.5312,-0.0186,0,4,,-37.23
5.918000,-1648.5937,-0.0211,0,4,,-37.23
5.920000,-1648.5625,-0.0229,0,4,,-37.23
5.922000,-1648.7188,-0.0230,0,4,,-37.23
5.924000,-1648.6562,-0.0215,0,4,,-37.23
5.926000,-1648.6562,-0.0186,0,4,,-37.23
5.928000,-1648.6250,-0.0154,0,4,,-37.23
5.930000,-1648.6250,-0.0131,0,4,,-37.23
5.932000,-1648.6562,-0.0127,0,4,,-37.23
5.934000,-1648.6875,-0.0147,0,4,,-37.23
5.936000,-1648.6875,-0.0191,0,4,,-37.23
5.938000,-1648.5937,-0.0252,0,4,,-37.23
5.940000,-1648.5312,-0.0318,0,4,,-37.23
5.942000,-1648.6250,-0.0376,0,4,,-37.23
5.944000,-1648.7188,-0.0410,0,4,,-37.23
5.946000,-1648.6250,-0.0410,0,4,,-37.23
5.948000,-1648.7188,-0.0374,0,4,,-37.23
5.950000,-1648.7188,-0.0306,0,4,,-37.23
5.952000,-1648.7188,-0.0218,0,4,,-37.23
5.954000,-1648.6562,-0.0130,0,4,,-37.23
5.956000,-1648.6562,-0.0062,0,4,,-37.23
5.958000,-1648.4688,-0.0031,0,4,,-37.23
5.960000,-1648.5625,-0.0043,0,4,,-37.23
5.962000,-1648.6250,-0.0097,0,4,,-37.23
5.964000,-1648.6250,-0.0177,0,4,,-37.23
5.966000,-1648.6562,-0.0263,0,4,,-37.23
5.968000,-1648.7188,-0.0332,0,4,,-37.23
5.970000,-1648.7188,-0.0366,0,4,,-37.23
5.972000,-1648.7812,-0.0355,0,4,,-37.23
5.974000,-1648.6250,-0.0300,0,4,,-37.23
5.976000,-1648.6562,-0.0210,0,4,,-37.23
5.978000,-1648.6250,-0.0104,0,4,,-37.23
5.980000,-1648.5000,0.0002,0,4,,-37.23
5.982000,-1648.5312,0.0094,0,4,,-37.23
5.984000,-1648.6250,0.0164,0,4,,-37.23
5.986000,-1648.5937,0.0211,0,4,,-37.23
5.988000,-1648.6562,0.0241,0,4,,-37.23
5.990000,-1648.7188,0.0259,0,4,,-37.23
5.992000,-1648.6875,0.0266,0,4,,-37.23
5.994000,-1648.5625,0.0261,0,4,,-37.23
5.996000,-1648.6562,0.0237,0,4,,-37.23
5.998000,-1648.5937,0.0188,0,4,,-37.23
6.000000,-1648.4375,0.0110,0,4,,-37.23
6.002000,-1648.5312,0.0009,0,4,,-37.23
6.004000,-1648.6250,-0.0102,0,4,,-37.23
6.006000,-1648.6562,-0.0202,0,4,,-37.23
6.008000,-1648.9062,-0.0273,0,4,,-37.23
6.010000,-1648.6562,-0.0301,0,4,,-37.23
6.012000,-1648.6562,-0.0284,0,4,,-37.23
6.014000,-1648.7188,-0.0233,0,4,,-37.23
6.016000,-1648.6250,-0.0165,0,4,,-37.23
6.018000,-1648.5937,-0.0104,0,4,,-37.23
6.020000,-1648.5312,-0.0072,0,4,,-37.23
6.022000,-1648.6562,-0.0079,0,4,,-37.23
6.024000,-1648.5625,-0.0126,0,4,,-37.23
6.026000,-1648.5937,-0.0203,0,4,,-37.23
6.028000,-1648.6875,-0.0288,0,4,,-37.23
6.030000,-1648.9375,-0.0360,0,4,,-37.23
6.032000,-1648.7188,-0.0401,0,4,,-37.23
6.034000,-1648.5937,-0.0403,0,4,,-37.23
