timestamp_s,filtered_mV,loop,hr_bpm,snr_wb_db,snr_qrs_db
0.288000,-88.2500,0,,,
0.298000,-88.7500,0,,,
0.308000,-91.7500,0,,,
0.318000,-90.8750,0,,,
0.328000,-92.5000,0,,,
0.338000,-90.2500,0,,,
0.348000,-92.6250,0,,,
0.358000,-91.1250,0,,,
0.368000,-92.8750,0,,,
0.378000,-90.0000,0,,,
0.388000,-90.5000,0,,,
0.398000,-91.2500,0,,,
0.408000,-89.7500,0,,,
0.418000,-88.2500,0,,,
0.428000,-90.1250,0,,,
0.438000,-83.7500,0,,,
0.448000,-88.1250,0,,,
0.458000,-83.1250,0,,,
0.468000,-88.5000,0,,,
0.478000,-83.3750,0,,,
0.488000,-80.8750,0,,,
0.498000,-82.5000,0,,,
0.508000,-80.5000,0,,,
0.518000,-83.0000,0,,,
0.528000,-80.7500,0,,,
0.538000,-81.0000,0,,,
0.548000,-80.2500,0,,,
0.558000,-80.6250,0,,,
0.568000,-79.5000,0,,,
0.578000,-79.8750,0,,,
0.588000,-78.8750,0,,,
0.598000,-79.1250,0,,,
0.608000,-83.2500,0,,,
0.618000,-80.1250,0,,,
0.628000,-85.3750,0,,,
0.638000,-80.6250,0,,,
0.648000,-84.1250,0,,,
0.658000,-86.3750,0,,,
0.668000,-83.8750,0,,,
0.678000,-85.0000,0,,,
0.688000,-84.3750,0,,,
0.698000,-86.0000,0,,,
0.708000,-86.0000,0,,,
0.718000,-83.8750,0,,,
0.728000,-77.6250,0,,,
0.738000,-75.5000,0,,,
0.748000,-83.6250,0,,,
0.758000,-99.0000,0,,,
0.768000,-88.5000,0,,,
0.778000,-85.5000,0,,,
0.788000,-84.6250,0,,,
0.798000,-86.1250,0,,,
0.808000,-85.1250,0,,,
0.818000,-85.5000,0,,,
0.828000,-85.1250,0,,,
0.838000,-85.2500,0,,,
0.848000,-84.1250,0,,,
0.858000,-85.5000,0,,,
0.868000,-83.2500,0,,,
0.878000,-84.5000,0,,,
0.888000,-81.3750,0,,,
0.898000,-82.2500,0,,,
0.908000,-78.5000,0,,,
0.918000,-80.3750,0,,,
0.928000,-78.2500,0,,,
0.938000,-74.0000,0,,,
0.948000,-75.5000,0,,,
0.958000,-78.0000,0,,,
0.968000,-78.8750,0,,,
0.978000,-83.7500,0,,,
0.988000,-84.6250,0,,,
0.998000,-88.2500,0,,,
1.008000,-85.8750,0,,,
1.018000,-87.7500,0,,,
1.028000,-86.6250,0,,,
1.038000,-87.6250,0,,,
1.048000,-82.0000,0,,,
1.058000,-80.8750,0,,,
1.068000,-82.7500,0,,,
1.078000,-86.8750,0,,,
1.088000,-87.1250,0,,,
1.098000,-92.0000,0,,,
1.108000,-89.0000,0,,,
1.118000,-93.6250,0,,,
1.128000,-90.2500,0,,,
1.138000,-92.0000,0,,,
1.148000,-91.2500,0,,,
1.158000,-93.5000,0,,,
1.168000,-92.1250,0,,,
1.178000,-95.2500,0,,,
1.188000,-92.5000,0,,,
1.198000,-93.8750,0,,,
1.208000,-92.6250,0,,,
1.218000,-94.5000,0,,,
1.228000,-93.5000,0,,,
1.238000,-94.3750,0,,,
1.248000,-93.0000,0,,,
1.258000,-94.3750,0,,,
1.268000,-92.8750,0,,,
1.278000,-94.3750,0,,,
1.288000,-93.3750,0,,,
1.298000,-95.5000,0,,,
1.308000,-93.6250,0,,,
1.318000,-95.3750,0,,,
1.328000,-94.5000,0,,,
1.338000,-94.5000,0,,,
1.348000,-92.3750,0,,,
1.358000,-93.5000,0,,,
1.368000,-91.7500,0,,,
1.378000,-93.5000,0,,,
1.388000,-90.7500,0,,,
1.398000,-87.1250,0,,,
1.408000,-85.3750,0,,,
1.418000,-72.7500,0,,,
1.428000,-76.2500,0,,,
1.438000,-96.5000,0,,,
1.448000,-103.7500,0,,,
1.458000,-87.2500,0,,,
1.468000,-80.8750,0,,,
1.478000,-86.2500,0,,,
1.488000,-80.3750,0,,,
1.498000,-84.2500,0,,,
1.508000,-79.2500,0,,,
1.518000,-81.1250,0,,,
1.528000,-78.2500,0,,,
1.538000,-80.0000,0,,,
1.548000,-77.0000,0,,,
1.558000,-78.8750,0,,,
1.568000,-81.0000,0,,,
1.578000,-77.6250,0,,,
1.588000,-78.1250,0,,,
1.598000,-74.7500,0,,,
1.608000,-75.1250,0,,,
1.618000,-77.0000,0,,,
1.628000,-73.2500,0,,,
1.638000,-78.0000,0,,,
1.648000,-78.2500,0,,,
1.658000,-84.2500,0,,,
1.668000,-87.1250,0,,,
1.678000,-87.8750,0,,,
1.688000,-89.3750,0,,,
1.698000,-89.1250,0,,,
1.708000,-90.3750,0,,,
1.718000,-89.5000,0,,,
1.728000,-90.5000,0,,,
1.738000,-89.7500,0,,,
1.748000,-90.2500,0,,,
1.758000,-89.7500,0,,,
1.768000,-90.1250,0,,,
1.778000,-89.2500,0,,,
1.788000,-91.5000,0,,,
1.798000,-92.7500,0,,,
1.808000,-95.0000,0,,,
1.818000,-94.7500,0,,,
1.828000,-96.3750,0,,,
1.838000,-95.5000,0,,,
1.848000,-96.7500,0,,,
1.858000,-95.6250,0,,,
1.868000,-96.8750,0,,,
1.878000,-96.3750,0,,,
1.888000,-98.8750,0,,,
1.898000,-96.6250,0,,,
1.908000,-97.6250,0,,,
1.918000,-95.5000,0,,,
1.928000,-97.5000,0,,,
1.938000,-95.6250,0,,,
1.948000,-96.8750,0,,,
1.958000,-94.8750,0,,,
1.968000,-95.2500,0,,,
1.978000,-93.1250,0,,,
1.988000,-96.6250,0,,,
1.998000,-95.8750,0,,,
2.008000,-98.5000,0,,,
2.018000,-98.0000,0,,,
2.028000,-99.2500,0,,,
2.038000,-97.1250,0,,,
2.048000,-98.7500,0,,,
2.058000,-96.7500,0,,,
2.068000,-100.1250,0,,,
2.078000,-96.1250,0,,,
2.088000,-98.2500,0,,,
2.098000,-94.2500,0,,,
2.108000,-90.7500,0,,,
2.118000,-80.5000,0,,,
2.128000,-86.5000,0,,,
2.138000,-105.2500,0,,,
2.148000,-105.7500,0,,,
2.158000,-92.7500,0,,,
2.168000,-93.2500,0,,,
2.178000,-92.3750,0,,,
2.188000,-93.6250,0,,,
2.198000,-91.5000,0,,,
2.208000,-92.1250,0,,,
2.218000,-89.2500,0,,,
2.228000,-89.6250,0,,,
2.238000,-86.8750,0,,,
2.248000,-87.2500,0,,,
2.258000,-84.6250,0,,,
2.268000,-83.2500,0,,,
2.278000,-80.7500,0,,,
2.288000,-78.5000,0,,,
2.298000,-76.5000,0,,,
2.308000,-75.1250,0,,,
2.318000,-69.8750,0,,,
2.328000,-73.1250,0,,,
2.338000,-70.6250,0,,,
2.348000,-77.1250,0,,,
2.358000,-76.2500,0,,,
2.368000,-83.5000,0,,,
2.378000,-82.1250,0,,,
2.388000,-79.7500,0,,,
2.398000,-83.7500,0,,,
2.408000,-81.2500,0,,,
2.418000,-84.1250,0,,,
2.428000,-81.3750,0,,,
2.438000,-81.0000,0,,,
2.448000,-81.2500,0,,,
2.458000,-80.3750,0,,,
2.468000,-81.1250,0,,,
2.478000,-80.5000,0,,,
2.488000,-84.6250,0,,,
2.498000,-79.5000,0,,,
2.508000,-82.8750,0,,,
2.518000,-79.8750,0,,,
2.528000,-84.2500,0,,,
2.538000,-85.3750,0,,,
2.548000,-84.8750,0,,,
2.558000,-87.3750,0,,,
2.568000,-85.7500,0,,,
2.578000,-88.1250,0,,,
2.588000,-86.0000,0,,,
2.598000,-88.1250,0,,,
2.608000,-89.5000,0,,,
2.618000,-87.6250,0,,,
2.628000,-89.3750,0,,,
2.638000,-87.8750,0,,,
2.648000,-89.3750,0,,,
2.658000,-88.6250,0,,,
2.668000,-89.7500,0,,,
2.678000,-90.6250,0,,,
2.688000,-91.1250,0,,,
2.698000,-91.1250,0,,,
2.708000,-91.1250,0,,,
2.718000,-91.5000,0,,,
2.728000,-91.6250,0,,,
2.738000,-93.1250,0,,,
2.748000,-92.6250,0,,,
2.758000,-93.5000,0,,,
2.768000,-92.8750,0,,,
2.778000,-91.1250,0,,,
2.788000,-82.6250,0,,,
2.798000,-79.7500,0,,,
2.808000,-83.7500,0,,,
2.818000,-102.7500,0,,,
2.828000,-94.1250,0,,,
2.838000,-88.6250,0,,,
2.848000,-86.2500,0,,,
2.858000,-89.6250,0,,,
2.868000,-86.6250,0,,,
2.878000,-88.1250,0,,,
2.888000,-85.2500,0,,,
2.898000,-88.3750,0,,,
2.908000,-85.7500,0,,,
2.918000,-87.0000,0,,,
2.928000,-84.2500,0,,,
2.938000,-85.8750,0,,,
2.948000,-82.6250,0,,,
2.958000,-83.5000,0,,,
2.968000,-78.8750,0,,,
2.978000,-79.7500,0,,,
2.988000,-78.0000,0,,,
2.998000,-79.5000,0,,,
3.008000,-77.5000,0,,,
3.018000,-82.5000,0,,,
3.028000,-84.3750,0,,,
3.038000,-88.7500,0,,,
3.048000,-89.2500,0,,,
3.058000,-92.5000,0,,,
3.068000,-91.8750,0,,,
3.078000,-93.8750,0,,,
3.088000,-92.1250,0,,,
3.098000,-93.8750,0,,,
3.108000,-92.3750,0,,,
3.118000,-93.7500,0,,,
3.128000,-92.5000,0,,,
3.138000,-94.0000,0,,,
3.148000,-92.5000,0,,,
3.158000,-93.8750,0,,,
3.168000,-93.2500,0,,,
3.178000,-93.7500,0,,,
3.188000,-93.1250,0,,,
3.198000,-93.5000,0,,,
3.208000,-92.3750,0,,,
3.218000,-92.5000,0,,,
3.228000,-91.3750,0,,,
3.238000,-92.8750,0,,,
3.248000,-92.2500,0,,,
3.258000,-93.5000,0,,,
3.268000,-92.8750,0,,,
3.278000,-94.1250,0,,,
3.288000,-92.0000,0,,,
3.298000,-90.1250,0,,,
3.308000,-92.5000,0,,,
3.318000,-90.7500,0,,,
3.328000,-91.7500,0,,,
3.338000,-88.7500,0,,,
3.348000,-83.1250,0,,,
3.358000,-89.8750,0,,,
3.368000,-84.1250,0,,,
3.378000,-90.0000,0,,,
3.388000,-84.5000,0,,,
3.398000,-85.6250,0,,,
3.408000,-83.7500,0,,,
3.418000,-83.6250,0,,,
3.428000,-83.7500,0,,,
3.438000,-83.3750,0,,,
3.448000,-86.5000,0,,,
3.458000,-82.6250,0,,,
3.468000,-82.5000,0,,,
3.478000,-72.1250,0,,,
3.488000,-73.2500,0,,,
3.498000,-85.7500,0,,,
3.508000,-96.3750,0,,,
3.518000,-88.2500,0,,,
3.528000,-80.6250,0,,,
3.538000,-85.1250,0,,,
3.548000,-81.6250,0,,,
3.558000,-84.7500,0,,,
3.568000,-85.0000,0,,,
3.578000,-83.0000,0,,,
3.588000,-84.5000,0,,,
3.598000,-82.2500,0,,,
3.608000,-83.8750,0,,,
3.618000,-82.1250,0,,,
3.628000,-81.2500,0,,,
3.638000,-80.5000,0,,,
3.648000,-79.1250,0,,,
3.658000,-77.2500,0,,,
3.668000,-76.5000,0,,,
3.678000,-75.5000,0,,,
3.688000,-76.8750,0,,,
3.698000,-77.1250,0,,,
3.708000,-79.8750,0,,,
3.718000,-80.7500,0,,,
3.728000,-84.1250,0,,,
3.738000,-84.8750,0,,,
3.748000,-86.7500,0,,,
3.758000,-85.6250,0,,,
3.768000,-88.5000,0,,,
3.778000,-86.5000,0,,,
3.788000,-88.0000,0,,,
3.798000,-86.7500,0,,,
3.808000,-88.2500,0,,,
3.818000,-87.6250,0,,,
3.828000,-88.0000,0,,,
3.838000,-86.7500,0,,,
3.848000,-88.3750,0,,,
3.858000,-87.1250,0,,,
3.868000,-87.5000,0,,,
3.878000,-87.7500,0,,,
3.888000,-89.3750,0,,,
3.898000,-86.6250,0,,,
3.908000,-88.1250,0,,,
3.918000,-86.5000,0,,,
3.928000,-88.5000,0,,,
3.938000,-87.1250,0,,,
3.948000,-88.7500,0,,,
3.958000,-87.8750,0,,,
3.968000,-88.8750,0,,,
3.978000,-87.7500,0,,,
3.988000,-85.1250,0,,,
3.998000,-85.8750,0,,,
4.008000,-85.5000,0,,,
4.018000,-83.7500,0,,,
4.028000,-88.5000,0,,,
4.038000,-88.7500,0,,,
4.048000,-85.8750,0,,,
4.058000,-79.3750,0,,,
4.068000,-85.2500,0,,,
4.078000,-85.1250,0,,,
4.088000,-77.7500,0,,,
4.098000,-76.1250,0,,,
4.108000,-75.8750,0,,,
4.118000,-79.5000,0,,,
4.128000,-87.3750,0,,,
4.138000,-88.1250,0,,,
4.148000,-83.5000,0,,,
4.158000,-87.7500,0,,,
4.168000,-90.0000,0,,,
4.178000,-88.6250,0,,,
4.188000,-90.0000,0,,,
4.198000,-88.5000,0,,,
4.208000,-89.0000,0,,,
4.218000,-88.1250,0,,,
4.228000,-89.7500,0,,,
4.238000,-85.8750,0,,,
4.248000,-82.0000,0,,,
4.258000,-88.1250,0,,,
4.268000,-89.0000,0,,,
4.278000,-80.0000,0,,,
4.288000,-81.1250,0,,,
4.298000,-78.1250,0,,,
4.308000,-82.1250,0,,,
4.318000,-80.5000,0,,,
4.328000,-80.1250,0,,,
4.338000,-70.0000,0,,,
4.348000,-74.2500,0,,,
4.358000,-77.5000,0,,,
4.368000,-81.8750,0,,,
4.378000,-79.8750,0,,,
4.388000,-82.6250,0,,,
4.398000,-85.2500,0,,,
4.408000,-82.5000,0,,,
4.418000,-86.0000,0,,,
4.428000,-82.6250,0,,,
4.438000,-86.0000,0,,,
4.448000,-82.7500,0,,,
4.458000,-85.8750,0,,,
4.468000,-86.8750,0,,,
4.478000,-86.0000,0,,,
4.488000,-86.8750,0,,,
4.498000,-85.2500,0,,,
4.508000,-87.0000,0,,,
4.518000,-86.2500,0,,,
4.528000,-81.2500,0,,,
4.538000,-84.5000,0,,,
4.548000,-86.0000,0,,,
4.558000,-77.3750,0,,,
4.568000,-83.6250,0,,,
4.578000,-84.1250,0,,,
4.588000,-75.1250,0,,,
4.598000,-81.0000,0,,,
4.608000,-78.3750,0,,,
4.618000,-69.2500,0,,,
4.628000,-67.6250,0,,,
4.638000,-77.8750,0,,,
4.648000,-83.0000,0,,,
4.658000,-84.8750,0,,,
4.668000,-80.0000,0,,,
4.678000,-88.1250,0,,,
4.688000,-78.8750,0,,,
4.698000,-78.7500,0,,,
4.708000,-86.2500,0,,,
4.718000,-87.6250,0,,,
4.728000,-85.8750,0,,,
4.738000,-82.7500,0,,,
4.748000,-76.1250,0,,,
4.758000,-70.5000,0,,,
4.768000,-91.5000,0,,,
4.778000,-79.0000,0,,,
4.788000,-80.5000,0,,,
4.798000,-80.2500,0,,,
4.808000,-80.6250,0,,,
4.818000,-78.3750,0,,,
4.828000,-76.0000,0,,,
4.838000,-74.2500,0,,,
4.848000,-66.5000,0,,,
4.858000,-72.0000,0,,,
4.868000,-77.2500,0,,,
4.878000,-81.5000,0,,,
4.888000,-82.0000,0,,,
4.898000,-76.6250,0,,,
4.908000,-84.6250,0,,,
4.918000,-77.5000,0,,,
4.928000,-75.7500,0,,,
4.938000,-78.1250,0,,,
4.948000,-76.1250,0,,,
4.958000,-77.7500,0,,,
4.968000,-77.0000,0,,,
4.978000,-82.6250,0,,,
4.988000,-84.1250,0,,,
4.998000,-85.3750,0,,,
5.008000,-85.1250,0,,,
5.018000,-84.2500,0,,,
5.028000,-83.0000,0,,,
5.038000,-86.6250,0,,,
5.048000,-85.0000,0,,,
5.058000,-86.2500,0,,,
5.068000,-83.1250,0,,,
5.078000,-70.5000,0,,,
5.088000,-76.6250,0,,,
5.098000,-75.0000,0,,,
5.108000,-76.6250,0,,,
5.118000,-81.8750,0,,,
5.128000,-77.8750,0,,,
5.138000,-76.0000,0,,,
5.148000,-82.7500,0,,,
5.158000,-84.7500,0,,,
5.168000,-83.6250,0,,,
5.178000,-84.6250,0,,,
5.188000,-85.5000,0,,,
5.198000,-85.0000,0,,,
5.208000,-77.7500,0,,,
5.218000,-80.2500,0,,,
5.228000,-82.7500,0,,,
5.238000,-82.3750,0,,,
5.248000,-81.0000,0,,,
5.258000,-77.8750,0,,,
5.268000,-81.3750,0,,,
5.278000,-83.6250,0,,,
5.288000,-79.0000,0,,,
5.298000,-90.3750,0,,,
5.308000,-81.6250,0,,,
5.318000,-78.3750,0,,,
5.328000,-75.6250,0,,,
5.338000,-77.8750,0,,,
5.348000,-79.6250,0,,,
5.358000,-83.6250,0,,,
5.368000,-86.2500,0,,,
5.378000,-79.6250,0,,,
5.388000,-80.0000,0,,,
5.398000,-77.1250,0,,,
5.408000,-79.8750,0,,,
5.418000,-78.7500,0,,,
5.428000,-86.8750,0,,,
5.438000,-83.6250,0,,,
5.448000,-85.1250,0,,,
5.458000,-75.8750,0,,,
5.468000,-84.1250,0,,,
5.478000,-86.6250,0,,,
5.488000,-86.1250,0,,,
5.498000,-84.8750,0,,,
5.508000,-83.5000,0,,,
5.518000,-84.7500,0,,,
5.528000,-91.3750,0,,,
5.538000,-79.5000,0,,,
5.548000,-75.3750,0,,,
5.558000,-68.6250,0,,,
5.568000,-73.6250,0,,,
5.578000,-73.2500,0,,,
5.588000,-78.1250,0,,,
5.598000,-80.3750,0,,,
5.608000,-73.1250,0,,,
5.618000,-72.6250,0,,,
5.628000,-78.0000,0,,,
5.638000,-82.0000,0,,,
5.648000,-79.3750,0,,,
5.658000,-81.0000,0,,,
5.668000,-79.8750,0,,,
5.678000,-78.5000,0,,,
5.688000,-76.0000,0,,,
5.698000,-74.1250,0,,,
5.708000,-77.0000,0,,,
5.718000,-89.5000,0,,,
5.728000,-74.3750,0,,,
5.738000,-74.6250,0,,,
5.748000,-73.5000,0,,,
5.758000,-78.8750,0,,,
5.768000,-78.0000,0,,,
5.778000,-79.5000,0,,,
5.788000,-76.2500,0,,,
5.798000,-78.7500,0,,,
5.808000,-74.0000,0,,,
5.818000,-76.8750,0,,,
5.828000,-76.1250,0,,,
5.838000,-80.1250,0,,,
5.848000,-80.3750,0,,,
5.858000,-82.8750,0,,,
5.868000,-81.5000,0,,,
5.878000,-83.8750,0,,,
5.888000,-82.2500,0,,,
5.898000,-82.1250,0,,,
5.908000,-81.6250,0,,,
5.918000,-82.7500,0,,,
5.928000,-81.2500,0,,,
5.938000,-82.1250,0,,,
5.948000,-81.1250,0,,,
5.958000,-83.3750,0,,,
5.968000,-73.7500,0,,,
5.978000,-78.2500,0,,,
5.988000,-74.5000,0,,,
5.998000,-77.5000,0,,,
6.008000,-81.0000,0,,,
6.018000,-81.8750,0,,,
6.028000,-83.0000,0,,,
6.038000,-82.5000,0,,,
6.048000,-83.6250,0,,,
6.058000,-82.0000,0,,,
6.068000,-85.3750,0,,,
6.078000,-82.3750,0,,,
6.088000,-85.0000,0,,,
6.098000,-83.2500,0,,,
6.108000,-86.3750,0,,,
6.118000,-84.6250,0,,,
6.128000,-86.6250,0,,,
6.138000,-85.7500,0,,,
6.148000,-87.6250,0,,,
6.158000,-86.2500,0,,,
6.168000,-88.2500,0,,,
6.178000,-87.0000,0,,,
6.188000,-79.1250,0,,,
6.198000,-96.6250,0,,,
6.208000,-87.7500,0,,,
6.218000,-83.3750,0,,,
6.228000,-85.8750,0,,,
6.238000,-83.7500,0,,,
6.248000,-85.8750,0,,,
6.258000,-83.0000,0,,,
6.268000,-84.5000,0,,,
6.278000,-82.5000,0,,,
6.288000,-84.2500,0,,,
6.298000,-81.2500,0,,,
6.308000,-82.3750,0,,,
6.318000,-80.3750,0,,,
6.328000,-81.1250,0,,,
6.338000,-79.2500,0,,,
6.348000,-79.6250,0,,,
6.358000,-77.7500,0,,,
6.368000,-79.2500,0,,,
6.378000,-76.8750,0,,,
6.388000,-79.5000,3,114.01,1.41,11.11
6.398000,-79.0000,3,114.01,1.41,11.11
6.408000,-80.1250,3,114.01,1.41,11.11
6.418000,-82.6250,3,114.01,1.41,11.11
6.428000,-82.0000,3,114.01,1.41,11.11
6.438000,-84.3750,3,114.01,1.41,11.11
6.448000,-82.6250,3,114.01,1.41,11.11
6.458000,-78.8750,3,114.01,1.41,11.11
6.468000,-84.6250,3,114.01,1.41,11.11
6.478000,-79.6250,3,114.01,1.41,11.11
6.488000,-84.7500,3,114.01,1.41,11.11
6.498000,-79.3750,3,114.01,1.41,11.11
6.508000,-79.0000,3,114.01,1.41,11.11
6.518000,-78.7500,3,114.01,1.41,11.11
6.528000,-79.2500,3,114.01,1.41,11.11
6.538000,-78.7500,3,114.01,1.41,11.11
6.548000,-79.1250,3,114.01,1.41,11.11
6.558000,-81.2500,3,114.01,1.41,11.11
6.568000,-78.7500,3,114.01,1.41,11.11
6.578000,-80.6250,3,114.01,1.41,11.11
6.588000,-78.3750,3,114.01,1.41,11.11
6.598000,-80.3750,3,114.01,1.41,11.11
6.608000,-78.8750,3,114.01,1.41,11.11
6.618000,-80.1250,3,114.01,1.41,11.11
6.628000,-85.2500,3,114.01,1.41,11.11
6.638000,-80.0000,3,114.01,1.41,11.11
6.648000,-84.1250,3,114.01,1.41,11.11
6.658000,-80.3750,3,114.01,1.41,11.11
6.668000,-84.8750,3,114.01,1.41,11.11
6.678000,-86.3750,3,114.01,1.41,11.11
6.688000,-84.7500,3,114.01,1.41,11.11
6.698000,-86.7500,3,114.01,1.41,11.11
6.708000,-86.3750,3,114.01,1.41,11.11
6.718000,-87.1250,3,114.01,1.41,11.11
6.728000,-86.0000,3,114.01,1.41,11.11
6.738000,-86.7500,3,114.01,1.41,11.11
6.748000,-86.3750,3,114.01,1.41,11.11
6.758000,-85.7500,3,114.01,1.41,11.11
6.768000,-84.8750,3,114.01,1.41,11.11
6.778000,-83.5000,3,114.01,1.41,11.11
6.788000,-77.7500,3,114.01,1.41,11.11
6.798000,-79.0000,3,114.01,1.41,11.11
6.808000,-83.7500,3,114.01,1.41,11.11
6.818000,-99.7500,3,114.01,1.41,11.11
6.828000,-86.6250,3,114.01,1.41,11.11
6.838000,-85.3750,3,114.01,1.41,11.11
6.848000,-83.5000,3,114.01,1.41,11.11
6.858000,-85.3750,3,114.01,1.41,11.11
6.868000,-83.5000,3,114.01,1.41,11.11
6.878000,-85.0000,3,114.01,1.41,11.11
6.888000,-83.2500,3,114.01,1.41,11.11
6.898000,-84.1250,3,114.01,1.41,11.11
6.908000,-82.0000,3,114.01,1.41,11.11
6.918000,-83.7500,3,114.01,1.41,11.11
6.928000,-81.2500,3,114.01,1.41,11.11
6.938000,-83.2500,3,114.01,1.41,11.11
6.948000,-80.2500,3,114.01,1.41,11.11
6.958000,-81.0000,3,114.01,1.41,11.11
6.968000,-78.1250,3,114.01,1.41,11.11
6.978000,-80.0000,3,114.01,1.41,11.11
6.988000,-77.1250,3,114.01,1.41,11.11
6.998000,-79.7500,3,114.01,1.41,11.11
7.008000,-77.8750,3,114.01,1.41,11.11
7.018000,-81.5000,3,114.01,1.41,11.11
7.028000,-82.6250,3,114.01,1.41,11.11
7.038000,-85.7500,3,114.01,1.41,11.11
7.048000,-86.1250,3,114.01,1.41,11.11
7.058000,-88.3750,3,114.01,1.41,11.11
7.068000,-88.5000,3,114.01,1.41,11.11
7.078000,-89.1250,3,114.01,1.41,11.11
7.088000,-88.7500,3,114.01,1.41,11.11
7.098000,-91.1250,3,114.01,1.41,11.11
7.108000,-88.8750,3,114.01,1.41,11.11
7.118000,-90.8750,3,114.01,1.41,11.11
7.128000,-88.7500,3,114.01,1.41,11.11
7.138000,-90.6250,3,114.01,1.41,11.11
7.148000,-88.0000,3,114.01,1.41,11.11
7.158000,-89.8750,3,114.01,1.41,11.11
7.168000,-88.2500,3,114.01,1.41,11.11
7.178000,-90.5000,3,114.01,1.41,11.11
7.188000,-88.6250,3,114.01,1.41,11.11
7.198000,-90.1250,3,114.01,1.41,11.11
7.208000,-88.3750,3,114.01,1.41,11.11
7.218000,-90.2500,3,114.01,1.41,11.11
7.228000,-89.3750,3,114.01,1.41,11.11
7.238000,-91.0000,3,114.01,1.41,11.11
7.248000,-88.6250,3,114.01,1.41,11.11
7.258000,-89.7500,3,114.01,1.41,11.11
7.268000,-88.2500,3,114.01,1.41,11.11
7.278000,-90.0000,3,114.01,1.41,11.11
7.288000,-87.7500,3,114.01,1.41,11.11
7.298000,-89.8750,3,114.01,1.41,11.11
7.308000,-88.6250,3,114.01,1.41,11.11
7.318000,-90.5000,3,114.01,1.41,11.11
7.328000,-89.7500,3,114.01,1.41,11.11
7.338000,-91.7500,3,114.01,1.41,11.11
7.348000,-88.2500,3,114.01,1.41,11.11
7.358000,-91.8750,3,114.01,1.41,11.11
7.368000,-88.8750,3,114.01,1.41,11.11
7.378000,-93.6250,3,114.01,1.41,11.11
7.388000,-90.2500,3,114.01,1.41,11.11
7.398000,-94.2500,3,114.01,1.41,11.11
7.408000,-87.0000,3,114.01,1.41,11.11
7.418000,-77.3750,3,114.01,1.41,11.11
7.428000,-83.5000,3,114.01,1.41,11.11
7.438000,-93.1250,3,114.01,1.41,11.11
7.448000,-99.6250,3,114.01,1.41,11.11
7.458000,-85.2500,3,114.01,1.41,11.11
7.468000,-83.6250,3,114.01,1.41,11.11
7.478000,-84.8750,3,114.01,1.41,11.11
7.488000,-83.1250,3,114.01,1.41,11.11
7.498000,-84.5000,3,114.01,1.41,11.11
7.508000,-81.5000,3,114.01,1.41,11.11
7.518000,-83.7500,3,114.01,1.41,11.11
7.528000,-81.0000,3,114.01,1.41,11.11
7.538000,-83.0000,3,114.01,1.41,11.11
7.548000,-79.8750,3,114.01,1.41,11.11
7.558000,-82.1250,3,114.01,1.41,11.11
7.568000,-83.7500,3,114.01,1.41,11.11
7.578000,-79.8750,3,114.01,1.41,11.11
7.588000,-81.1250,3,114.01,1.41,11.11
7.598000,-77.1250,3,114.01,1.41,11.11
7.608000,-79.3750,3,114.01,1.41,11.11
7.618000,-81.6250,3,114.01,1.41,11.11
7.628000,-80.3750,3,114.01,1.41,11.11
7.638000,-83.8750,3,114.01,1.41,11.11
7.648000,-83.0000,3,114.01,1.41,11.11
7.658000,-86.1250,3,114.01,1.41,11.11
7.668000,-88.0000,3,114.01,1.41,11.11
7.678000,-89.8750,3,114.01,1.41,11.11
7.688000,-91.0000,3,114.01,1.41,11.11
7.698000,-91.3750,3,114.01,1.41,11.11
7.708000,-91.0000,3,114.01,1.41,11.11
7.718000,-90.5000,3,114.01,1.41,11.11
7.728000,-90.5000,3,114.01,1.41,11.11
7.738000,-89.5000,3,114.01,1.41,11.11
7.748000,-90.7500,3,114.01,1.41,11.11
7.758000,-90.1250,3,114.01,1.41,11.11
7.768000,-90.0000,3,114.01,1.41,11.11
7.778000,-90.5000,3,114.01,1.41,11.11
7.788000,-92.0000,3,114.01,1.41,11.11
7.798000,-90.1250,3,114.01,1.41,11.11
7.808000,-90.7500,3,114.01,1.41,11.11
7.818000,-90.2500,3,114.01,1.41,11.11
7.828000,-91.8750,3,114.01,1.41,11.11
7.838000,-89.3750,3,114.01,1.41,11.11
7.848000,-89.8750,3,114.01,1.41,11.11
7.858000,-87.5000,3,114.01,1.41,11.11
7.868000,-89.7500,3,114.01,1.41,11.11
7.878000,-88.0000,3,114.01,1.41,11.11
7.888000,-89.8750,3,114.01,1.41,11.11
7.898000,-87.0000,3,114.01,1.41,11.11
7.908000,-89.8750,3,114.01,1.41,11.11
7.918000,-87.0000,3,114.01,1.41,11.11
7.928000,-91.2500,3,114.01,1.41,11.11
7.938000,-88.6250,3,114.01,1.41,11.11
7.948000,-91.6250,3,114.01,1.41,11.11
7.958000,-89.0000,3,114.01,1.41,11.11
7.968000,-92.5000,3,114.01,1.41,11.11
7.978000,-88.8750,3,114.01,1.41,11.11
7.988000,-92.5000,3,114.01,1.41,11.11
7.998000,-90.0000,3,114.01,1.41,11.11
8.008000,-92.0000,3,114.01,1.41,11.11
8.018000,-91.0000,3,114.01,1.41,11.11
8.028000,-92.2500,3,114.01,1.41,11.11
8.038000,-87.3750,3,114.01,1.41,11.11
8.048000,-84.3750,3,114.01,1.41,11.11
8.058000,-82.5000,3,114.01,1.41,11.11
8.068000,-92.2500,3,114.01,1.41,11.11
8.078000,-103.2500,3,114.01,1.41,11.11
8.088000,-92.8750,3,114.01,1.41,11.11
8.098000,-87.7500,3,114.01,1.41,11.11
8.108000,-88.6250,3,114.01,1.41,11.11
8.118000,-87.0000,3,114.01,1.41,11.11
8.128000,-89.2500,3,114.01,1.41,11.11
8.138000,-88.7500,3,114.01,1.41,11.11
8.148000,-86.7500,3,114.01,1.41,11.11
8.158000,-74.2500,3,114.01,1.41,11.11
8.168000,-79.5000,3,114.01,1.41,11.11
8.178000,-81.6250,3,114.01,1.41,11.11
8.188000,-76.2500,3,114.01,1.41,11.11
8.198000,-86.6250,3,114.01,1.41,11.11
8.208000,-86.7500,3,114.01,1.41,11.11
8.218000,-85.6250,3,114.01,1.41,11.11
8.228000,-86.3750,3,114.01,1.41,11.11
8.238000,-88.0000,3,114.01,1.41,11.11
8.248000,-85.7500,3,114.01,1.41,11.11
8.258000,-89.1250,3,114.01,1.41,11.11
8.268000,-79.0000,3,114.01,1.41,11.11
8.278000,-90.1250,3,114.01,1.41,11.11
8.288000,-91.0000,3,114.01,1.41,11.11
8.298000,-88.3750,3,114.01,1.41,11.11
8.308000,-89.5000,3,114.01,1.41,11.11
8.318000,-88.7500,3,114.01,1.41,11.11
8.328000,-89.8750,3,114.01,1.41,11.11
8.338000,-89.0000,3,114.01,1.41,11.11
8.348000,-90.2500,3,114.01,1.41,11.11
8.358000,-83.6250,3,114.01,1.41,11.11
8.368000,-92.2500,3,114.01,1.41,11.11
8.378000,-86.1250,3,114.01,1.41,11.11
8.388000,-83.3750,3,114.01,1.41,11.11
8.398000,-72.5000,3,114.01,1.41,11.11
8.408000,-83.7500,3,114.01,1.41,11.11
8.418000,-87.8750,3,114.01,1.41,11.11
8.428000,-79.1250,3,114.01,1.41,11.11
8.438000,-74.2500,3,114.01,1.41,11.11
8.448000,-79.0000,3,114.01,1.41,11.11
8.458000,-79.0000,3,114.01,1.41,11.11
8.468000,-80.0000,3,114.01,1.41,11.11
8.478000,-80.2500,3,114.01,1.41,11.11
8.488000,-82.2500,3,114.01,1.41,11.11
8.498000,-78.7500,3,114.01,1.41,11.11
8.508000,-73.8750,3,114.01,1.41,11.11
8.518000,-72.8750,3,114.01,1.41,11.11
8.528000,-92.8750,3,114.01,1.41,11.11
8.538000,-85.1250,3,114.01,1.41,11.11
8.548000,-77.8750,3,114.01,1.41,11.11
8.558000,-76.5000,3,114.01,1.41,11.11
8.568000,-80.3750,3,114.01,1.41,11.11
8.578000,-78.2500,3,114.01,1.41,11.11
8.588000,-79.8750,3,114.01,1.41,11.11
8.598000,-80.7500,3,114.01,1.41,11.11
8.608000,-78.0000,3,114.01,1.41,11.11
8.618000,-74.1250,3,114.01,1.41,11.11
8.628000,-68.2500,3,114.01,1.41,11.11
8.638000,-71.5000,3,114.01,1.41,11.11
8.648000,-69.1250,3,114.01,1.41,11.11
8.658000,-80.2500,3,114.01,1.41,11.11
8.668000,-78.5000,3,114.01,1.41,11.11
8.678000,-88.8750,3,114.01,1.41,11.11
8.688000,-83.6250,3,114.01,1.41,11.11
8.698000,-84.2500,3,114.01,1.41,11.11
8.708000,-81.3750,3,114.01,1.41,11.11
8.718000,-69.6250,3,114.01,1.41,11.11
8.728000,-75.6250,3,114.01,1.41,11.11
8.738000,-92.6250,3,114.01,1.41,11.11
8.748000,-79.2500,3,114.01,1.41,11.11
8.758000,-80.5000,3,114.01,1.41,11.11
8.768000,-77.6250,3,114.01,1.41,11.11
8.778000,-73.8750,3,114.01,1.41,11.11
8.788000,-78.2500,3,114.01,1.41,11.11
8.798000,-81.0000,3,114.01,1.41,11.11
8.808000,-76.8750,3,114.01,1.41,11.11
8.818000,-81.7500,3,114.01,1.41,11.11
8.828000,-80.0000,3,114.01,1.41,11.11
8.838000,-84.2500,3,114.01,1.41,11.11
8.848000,-82.0000,3,114.01,1.41,11.11
8.858000,-77.8750,3,114.01,1.41,11.11
8.868000,-81.2500,3,114.01,1.41,11.11
8.878000,-72.2500,3,114.01,1.41,11.11
8.888000,-83.8750,3,114.01,1.41,11.11
8.898000,-75.6250,3,114.01,1.41,11.11
8.908000,-77.0000,3,114.01,1.41,11.11
8.918000,-75.2500,3,114.01,1.41,11.11
8.928000,-79.2500,3,114.01,1.41,11.11
8.938000,-70.1250,3,114.01,1.41,11.11
8.948000,-74.6250,3,114.01,1.41,11.11
8.958000,-71.3750,3,114.01,1.41,11.11
8.968000,-66.6250,3,114.01,1.41,11.11
8.978000,-73.8750,3,114.01,1.41,11.11
8.988000,-78.2500,3,114.01,1.41,11.11
8.998000,-83.0000,3,114.01,1.41,11.11
9.008000,-83.2500,3,114.01,1.41,11.11
9.018000,-85.8750,3,114.01,1.41,11.11
9.028000,-84.3750,3,114.01,1.41,11.11
9.038000,-82.3750,3,114.01,1.41,11.11
9.048000,-80.8750,3,114.01,1.41,11.11
9.058000,-81.5000,3,114.01,1.41,11.11
9.068000,-81.6250,3,114.01,1.41,11.11
9.078000,-75.7500,3,114.01,1.41,11.11
9.088000,-85.5000,3,114.01,1.41,11.11
9.098000,-84.3750,3,114.01,1.41,11.11
9.108000,-83.6250,3,114.01,1.41,11.11
9.118000,-82.5000,3,114.01,1.41,11.11
9.128000,-78.2500,3,114.01,1.41,11.11
9.138000,-82.7500,3,114.01,1.41,11.11
9.148000,-83.1250,3,114.01,1.41,11.11
9.158000,-81.5000,3,114.01,1.41,11.11
9.168000,-77.8750,3,114.01,1.41,11.11
9.178000,-76.0000,3,114.01,1.41,11.11
9.188000,-80.0000,3,114.01,1.41,11.11
9.198000,-77.6250,3,114.01,1.41,11.11
9.208000,-78.5000,3,114.01,1.41,11.11
9.218000,-78.7500,3,114.01,1.41,11.11
9.228000,-84.6250,3,114.01,1.41,11.11
9.238000,-82.2500,3,114.01,1.41,11.11
9.248000,-81.6250,3,114.01,1.41,11.11
9.258000,-82.7500,3,114.01,1.41,11.11
9.268000,-79.7500,3,114.01,1.41,11.11
9.278000,-88.7500,3,114.01,1.41,11.11
9.288000,-81.3750,3,114.01,1.41,11.11
9.298000,-87.3750,3,114.01,1.41,11.11
9.308000,-83.6250,3,114.01,1.41,11.11
9.318000,-85.1250,3,114.01,1.41,11.11
9.328000,-84.7500,3,114.01,1.41,11.11
9.338000,-85.6250,3,114.01,1.41,11.11
9.348000,-81.5000,3,114.01,1.41,11.11
9.358000,-84.3750,3,114.01,1.41,11.11
9.368000,-82.8750,3,114.01,1.41,11.11
9.378000,-83.8750,3,114.01,1.41,11.11
9.388000,-82.3750,3,114.01,1.41,11.11
9.398000,-81.2500,3,114.01,1.41,11.11
9.408000,-84.0000,3,114.01,1.41,11.11
9.418000,-80.8750,3,114.01,1.41,11.11
9.428000,-79.1250,3,114.01,1.41,11.11
9.438000,-78.6250,3,114.01,1.41,11.11
9.448000,-84.0000,3,114.01,1.41,11.11
9.458000,-86.3750,3,114.01,1.41,11.11
9.468000,-90.8750,3,114.01,1.41,11.11
9.478000,-90.0000,3,114.01,1.41,11.11
9.488000,-90.0000,3,114.01,1.41,11.11
9.498000,-86.3750,3,114.01,1.41,11.11
9.508000,-89.5000,3,114.01,1.41,11.11
9.518000,-85.0000,3,114.01,1.41,11.11
9.528000,-85.6250,3,114.01,1.41,11.11
9.538000,-83.5000,3,114.01,1.41,11.11
9.548000,-79.8750,3,114.01,1.41,11.11
9.558000,-82.6250,3,114.01,1.41,11.11
9.568000,-85.5000,3,114.01,1.41,11.11
9.578000,-83.0000,3,114.01,1.41,11.11
9.588000,-86.5000,3,114.01,1.41,11.11
9.598000,-80.3750,3,114.01,1.41,11.11
9.608000,-89.5000,3,114.01,1.41,11.11
9.618000,-75.8750,3,114.01,1.41,11.11
9.628000,-79.2500,3,114.01,1.41,11.11
9.638000,-84.6250,3,114.01,1.41,11.11
9.648000,-84.1250,3,114.01,1.41,11.11
9.658000,-87.1250,3,114.01,1.41,11.11
9.668000,-85.1250,3,114.01,1.41,11.11
9.678000,-86.0000,3,114.01,1.41,11.11
9.688000,-81.3750,3,114.01,1.41,11.11
9.698000,-87.7500,3,114.01,1.41,11.11
9.708000,-90.0000,3,114.01,1.41,11.11
9.718000,-87.8750,3,114.01,1.41,11.11
9.728000,-86.6250,3,114.01,1.41,11.11
9.738000,-83.5000,3,114.01,1.41,11.11
9.748000,-87.0000,3,114.01,1.41,11.11
9.758000,-89.5000,3,114.01,1.41,11.11
9.768000,-90.1250,3,114.01,1.41,11.11
9.778000,-91.6250,3,114.01,1.41,11.11
9.788000,-88.6250,3,114.01,1.41,11.11
9.798000,-90.8750,3,114.01,1.41,11.11
9.808000,-88.0000,3,114.01,1.41,11.11
9.818000,-81.7500,3,114.01,1.41,11.11
9.828000,-88.6250,3,114.01,1.41,11.11
9.838000,-104.0000,3,114.01,1.41,11.11
9.848000,-91.0000,3,114.01,1.41,11.11
9.858000,-87.8750,3,114.01,1.41,11.11
9.868000,-90.2500,3,114.01,1.41,11.11
9.878000,-83.7500,3,114.01,1.41,11.11
9.888000,-79.8750,3,114.01,1.41,11.11
9.898000,-81.7500,3,114.01,1.41,11.11
9.908000,-78.6250,3,114.01,1.41,11.11
9.918000,-78.3750,3,114.01,1.41,11.11
9.928000,-78.0000,3,114.01,1.41,11.11
9.938000,-76.7500,3,114.01,1.41,11.11
9.948000,-82.6250,3,114.01,1.41,11.11
9.958000,-80.6250,3,114.01,1.41,11.11
9.968000,-82.2500,3,114.01,1.41,11.11
9.978000,-82.2500,3,114.01,1.41,11.11
9.988000,-85.6250,3,114.01,1.41,11.11
9.998000,-86.5000,3,114.01,1.41,11.11
10.008000,-90.1250,3,114.01,1.41,11.11
10.018000,-83.1250,3,114.01,1.41,11.11
10.028000,-87.8750,3,114.01,1.41,11.11
10.038000,-90.1250,3,114.01,1.41,11.11
10.048000,-91.8750,3,114.01,1.41,11.11
10.058000,-92.3750,3,114.01,1.41,11.11
10.068000,-90.1250,3,114.01,1.41,11.11
10.078000,-92.8750,3,114.01,1.41,11.11
10.088000,-91.2500,3,114.01,1.41,11.11
10.098000,-92.2500,3,114.01,1.41,11.11
10.108000,-93.0000,3,114.01,1.41,11.11
10.118000,-94.3750,3,114.01,1.41,11.11
10.128000,-91.0000,3,114.01,1.41,11.11
10.138000,-93.8750,3,114.01,1.41,11.11
10.148000,-91.8750,3,114.01,1.41,11.11
10.158000,-93.8750,3,114.01,1.41,11.11
10.168000,-91.0000,3,114.01,1.41,11.11
10.178000,-93.5000,3,114.01,1.41,11.11
10.188000,-91.0000,3,114.01,1.41,11.11
10.198000,-91.7500,3,114.01,1.41,11.11
10.208000,-90.8750,3,114.01,1.41,11.11
10.218000,-93.6250,3,114.01,1.41,11.11
10.228000,-84.8750,3,114.01,1.41,11.11
10.238000,-89.6250,3,114.01,1.41,11.11
10.248000,-89.0000,3,114.01,1.41,11.11
10.258000,-91.8750,3,114.01,1.41,11.11
10.268000,-92.1250,3,114.01,1.41,11.11
10.278000,-88.7500,3,114.01,1.41,11.11
10.288000,-91.1250,3,114.01,1.41,11.11
10.298000,-90.5000,3,114.01,1.41,11.11
10.308000,-92.1250,3,114.01,1.41,11.11
10.318000,-89.5000,3,114.01,1.41,11.11
10.328000,-91.6250,3,114.01,1.41,11.11
10.338000,-90.6250,3,114.01,1.41,11.11
10.348000,-90.6250,3,114.01,1.41,11.11
10.358000,-90.3750,3,114.01,1.41,11.11
10.368000,-90.6250,3,114.01,1.41,11.11
10.378000,-88.5000,3,114.01,1.41,11.11
10.388000,-89.8750,3,114.01,1.41,11.11
10.398000,-88.3750,3,114.01,1.41,11.11
10.408000,-91.1250,3,114.01,1.41,11.11
10.418000,-88.8750,3,114.01,1.41,11.11
10.428000,-92.0000,3,114.01,1.41,11.11
10.438000,-90.2500,3,114.01,1.41,11.11
10.448000,-93.8750,5,100.28,0.76,10.03
10.458000,-91.8750,5,100.28,0.76,10.03
10.468000,-91.8750,5,100.28,0.76,10.03
10.478000,-91.7500,5,100.28,0.76,10.03
10.488000,-93.6250,5,100.28,0.76,10.03
10.498000,-92.1250,5,100.28,0.76,10.03
10.508000,-94.3750,5,100.28,0.76,10.03
10.518000,-88.8750,5,100.28,0.76,10.03
10.528000,-84.1250,5,100.28,0.76,10.03
10.538000,-81.7500,5,100.28,0.76,10.03
10.548000,-90.2500,5,100.28,0.76,10.03
10.558000,-102.3750,5,100.28,0.76,10.03
10.568000,-96.6250,5,100.28,0.76,10.03
10.578000,-87.8750,5,100.28,0.76,10.03
10.588000,-92.0000,5,100.28,0.76,10.03
10.598000,-90.0000,5,100.28,0.76,10.03
10.608000,-90.2500,5,100.28,0.76,10.03
10.618000,-88.7500,5,100.28,0.76,10.03
10.628000,-89.8750,5,100.28,0.76,10.03
10.638000,-87.6250,5,100.28,0.76,10.03
10.648000,-89.2500,5,100.28,0.76,10.03
10.658000,-88.0000,5,100.28,0.76,10.03
10.668000,-89.0000,5,100.28,0.76,10.03
10.678000,-85.8750,5,100.28,0.76,10.03
10.688000,-86.6250,5,100.28,0.76,10.03
10.698000,-84.0000,5,100.28,0.76,10.03
10.708000,-84.0000,5,100.28,0.76,10.03
10.718000,-81.5000,5,100.28,0.76,10.03
10.728000,-81.8750,5,100.28,0.76,10.03
10.738000,-80.0000,5,100.28,0.76,10.03
10.748000,-81.5000,5,100.28,0.76,10.03
10.758000,-83.0000,5,100.28,0.76,10.03
10.768000,-85.8750,5,100.28,0.76,10.03
10.778000,-84.6250,5,100.28,0.76,10.03
10.788000,-90.5000,5,100.28,0.76,10.03
10.798000,-88.3750,5,100.28,0.76,10.03
10.808000,-92.1250,5,100.28,0.76,10.03
10.818000,-89.6250,5,100.28,0.76,10.03
10.828000,-89.1250,5,100.28,0.76,10.03
10.838000,-90.7500,5,100.28,0.76,10.03
10.848000,-88.0000,5,100.28,0.76,10.03
10.858000,-90.3750,5,100.28,0.76,10.03
10.868000,-87.0000,5,100.28,0.76,10.03
10.878000,-82.8750,5,100.28,0.76,10.03
10.888000,-88.6250,5,100.28,0.76,10.03
10.898000,-82.8750,5,100.28,0.76,10.03
10.908000,-88.2500,5,100.28,0.76,10.03
10.918000,-81.7500,5,100.28,0.76,10.03
10.928000,-83.7500,5,100.28,0.76,10.03
10.938000,-82.5000,5,100.28,0.76,10.03
10.948000,-84.5000,5,100.28,0.76,10.03
10.958000,-82.6250,5,100.28,0.76,10.03
10.968000,-84.2500,5,100.28,0.76,10.03
10.978000,-87.7500,5,100.28,0.76,10.03
10.988000,-83.3750,5,100.28,0.76,10.03
10.998000,-87.7500,5,100.28,0.76,10.03
11.008000,-82.8750,5,100.28,0.76,10.03
11.018000,-87.8750,5,100.28,0.76,10.03
11.028000,-89.5000,5,100.28,0.76,10.03
11.038000,-87.6250,5,100.28,0.76,10.03
11.048000,-89.8750,5,100.28,0.76,10.03
11.058000,-88.8750,5,100.28,0.76,10.03
11.068000,-88.6250,5,100.28,0.76,10.03
11.078000,-87.3750,5,100.28,0.76,10.03
11.088000,-89.7500,5,100.28,0.76,10.03
11.098000,-91.0000,5,100.28,0.76,10.03
11.108000,-89.0000,5,100.28,0.76,10.03
11.118000,-90.3750,5,100.28,0.76,10.03
11.128000,-89.5000,5,100.28,0.76,10.03
11.138000,-90.6250,5,100.28,0.76,10.03
11.148000,-90.7500,5,100.28,0.76,10.03
11.158000,-90.6250,5,100.28,0.76,10.03
11.168000,-89.5000,5,100.28,0.76,10.03
11.178000,-91.5000,5,100.28,0.76,10.03
11.188000,-90.2500,5,100.28,0.76,10.03
11.198000,-91.0000,5,100.28,0.76,10.03
11.208000,-89.7500,5,100.28,0.76,10.03
11.218000,-90.8750,5,100.28,0.76,10.03
11.228000,-89.7500,5,100.28,0.76,10.03
11.238000,-90.0000,5,100.28,0.76,10.03
11.248000,-88.7500,5,100.28,0.76,10.03
11.258000,-90.0000,5,100.28,0.76,10.03
11.268000,-88.0000,5,100.28,0.76,10.03
11.278000,-91.2500,5,100.28,0.76,10.03
11.288000,-90.3750,5,100.28,0.76,10.03
11.298000,-92.0000,5,100.28,0.76,10.03
11.308000,-91.2500,5,100.28,0.76,10.03
11.318000,-90.8750,5,100.28,0.76,10.03
11.328000,-89.8750,5,100.28,0.76,10.03
11.338000,-92.0000,5,100.28,0.76,10.03
11.348000,-91.6250,5,100.28,0.76,10.03
11.358000,-92.2500,5,100.28,0.76,10.03
11.368000,-90.1250,5,100.28,0.76,10.03
11.378000,-89.0000,5,100.28,0.76,10.03
11.388000,-80.2500,5,100.28,0.76,10.03
11.398000,-85.5000,5,100.28,0.76,10.03
11.408000,-95.1250,5,100.28,0.76,10.03
11.418000,-101.2500,5,100.28,0.76,10.03
11.428000,-89.2500,5,100.28,0.76,10.03
11.438000,-90.5000,5,100.28,0.76,10.03
11.448000,-88.8750,5,100.28,0.76,10.03
11.458000,-91.1250,5,100.28,0.76,10.03
11.468000,-87.7500,5,100.28,0.76,10.03
11.478000,-90.2500,5,100.28,0.76,10.03
11.488000,-87.8750,5,100.28,0.76,10.03
11.498000,-89.2500,5,100.28,0.76,10.03
11.508000,-86.5000,5,100.28,0.76,10.03
11.518000,-88.3750,5,100.28,0.76,10.03
11.528000,-85.3750,5,100.28,0.76,10.03
11.538000,-88.0000,5,100.28,0.76,10.03
11.548000,-84.0000,5,100.28,0.76,10.03
11.558000,-84.6250,5,100.28,0.76,10.03
11.568000,-82.0000,5,100.28,0.76,10.03
11.578000,-83.3750,5,100.28,0.76,10.03
11.588000,-80.5000,5,100.28,0.76,10.03
11.598000,-82.1250,5,100.28,0.76,10.03
11.608000,-80.5000,5,100.28,0.76,10.03
11.618000,-83.2500,5,100.28,0.76,10.03
11.628000,-84.6250,5,100.28,0.76,10.03
11.638000,-87.7500,5,100.28,0.76,10.03
11.648000,-87.7500,5,100.28,0.76,10.03
11.658000,-91.6250,5,100.28,0.76,10.03
11.668000,-91.2500,5,100.28,0.76,10.03
11.678000,-90.3750,5,100.28,0.76,10.03
11.688000,-90.8750,5,100.28,0.76,10.03
11.698000,-92.5000,5,100.28,0.76,10.03
11.708000,-90.3750,5,100.28,0.76,10.03
11.718000,-89.6250,5,100.28,0.76,10.03
11.728000,-90.5000,5,100.28,0.76,10.03
11.738000,-88.7500,5,100.28,0.76,10.03
11.748000,-90.2500,5,100.28,0.76,10.03
11.758000,-89.0000,5,100.28,0.76,10.03
11.768000,-82.3750,5,100.28,0.76,10.03
11.778000,-88.5000,5,100.28,0.76,10.03
11.788000,-83.7500,5,100.28,0.76,10.03
11.798000,-88.0000,5,100.28,0.76,10.03
11.808000,-84.2500,5,100.28,0.76,10.03
11.818000,-82.6250,5,100.28,0.76,10.03
11.828000,-82.5000,5,100.28,0.76,10.03
11.838000,-83.0000,5,100.28,0.76,10.03
11.848000,-83.6250,5,100.28,0.76,10.03
11.858000,-80.7500,5,100.28,0.76,10.03
11.868000,-84.7500,5,100.28,0.76,10.03
11.878000,-81.5000,5,100.28,0.76,10.03
11.888000,-83.8750,5,100.28,0.76,10.03
11.898000,-81.6250,5,100.28,0.76,10.03
11.908000,-83.1250,5,100.28,0.76,10.03
11.918000,-81.3750,5,100.28,0.76,10.03
11.928000,-83.1250,5,100.28,0.76,10.03
11.938000,-88.1250,5,100.28,0.76,10.03
11.948000,-83.1250,5,100.28,0.76,10.03
11.958000,-86.7500,5,100.28,0.76,10.03
11.968000,-83.1250,5,100.28,0.76,10.03
11.978000,-87.5000,5,100.28,0.76,10.03
11.988000,-88.0000,5,100.28,0.76,10.03
11.998000,-86.1250,5,100.28,0.76,10.03
12.008000,-89.3750,5,100.28,0.76,10.03
12.018000,-87.6250,5,100.28,0.76,10.03
12.028000,-86.8750,5,100.28,0.76,10.03
12.038000,-88.5000,5,100.28,0.76,10.03
12.048000,-88.1250,5,100.28,0.76,10.03
12.058000,-86.7500,5,100.28,0.76,10.03
12.068000,-87.6250,5,100.28,0.76,10.03
12.078000,-88.0000,5,100.28,0.76,10.03
12.088000,-87.5000,5,100.28,0.76,10.03
12.098000,-87.2500,5,100.28,0.76,10.03
12.108000,-88.6250,5,100.28,0.76,10.03
12.118000,-86.3750,5,100.28,0.76,10.03
12.128000,-89.1250,5,100.28,0.76,10.03
12.138000,-87.2500,5,100.28,0.76,10.03
12.148000,-88.8750,5,100.28,0.76,10.03
12.158000,-88.1250,5,100.28,0.76,10.03
12.168000,-90.0000,5,100.28,0.76,10.03
12.178000,-89.3750,5,100.28,0.76,10.03
12.188000,-90.3750,5,100.28,0.76,10.03
12.198000,-72.6250,5,100.28,0.76,10.03
12.208000,-86.8750,5,100.28,0.76,10.03
12.218000,-86.3750,5,100.28,0.76,10.03
12.228000,-85.3750,5,100.28,0.76,10.03
12.238000,-82.7500,5,100.28,0.76,10.03
12.248000,-82.0000,5,100.28,0.76,10.03
12.258000,-85.0000,5,100.28,0.76,10.03
12.268000,-86.5000,5,100.28,0.76,10.03
12.278000,-83.5000,5,100.28,0.76,10.03
12.288000,-84.6250,5,100.28,0.76,10.03
12.298000,-88.7500,5,100.28,0.76,10.03
12.308000,-89.1250,5,100.28,0.76,10.03
12.318000,-87.5000,5,100.28,0.76,10.03
12.328000,-89.7500,5,100.28,0.76,10.03
12.338000,-86.3750,5,100.28,0.76,10.03
12.348000,-89.8750,5,100.28,0.76,10.03
12.358000,-87.7500,5,100.28,0.76,10.03
12.368000,-88.3750,5,100.28,0.76,10.03
12.378000,-87.6250,5,100.28,0.76,10.03
12.388000,-87.7500,5,100.28,0.76,10.03
12.398000,-88.7500,5,100.28,0.76,10.03
12.408000,-84.3750,5,100.28,0.76,10.03
12.418000,-88.8750,5,100.28,0.76,10.03
12.428000,-90.5000,5,100.28,0.76,10.03
12.438000,-86.2500,5,100.28,0.76,10.03
12.448000,-79.1250,5,100.28,0.76,10.03
12.458000,-81.7500,5,100.28,0.76,10.03
12.468000,-83.8750,5,100.28,0.76,10.03
12.478000,-81.8750,5,100.28,0.76,10.03
12.488000,-85.0000,5,100.28,0.76,10.03
12.498000,-83.5000,5,100.28,0.76,10.03
12.508000,-81.1250,5,100.28,0.76,10.03
12.518000,-75.2500,5,100.28,0.76,10.03
12.528000,-71.8750,5,100.28,0.76,10.03
12.538000,-76.5000,5,100.28,0.76,10.03
12.548000,-75.8750,5,100.28,0.76,10.03
12.558000,-81.0000,5,100.28,0.76,10.03
12.568000,-79.3750,5,100.28,0.76,10.03
12.578000,-77.8750,5,100.28,0.76,10.03
12.588000,-82.2500,5,100.28,0.76,10.03
12.598000,-79.8750,5,100.28,0.76,10.03
12.608000,-83.7500,5,100.28,0.76,10.03
12.618000,-80.5000,5,100.28,0.76,10.03
12.628000,-83.0000,5,100.28,0.76,10.03
12.638000,-88.6250,5,100.28,0.76,10.03
12.648000,-89.2500,5,100.28,0.76,10.03
12.658000,-83.3750,5,100.28,0.76,10.03
12.668000,-86.3750,5,100.28,0.76,10.03
12.678000,-87.8750,5,100.28,0.76,10.03
12.688000,-82.2500,5,100.28,0.76,10.03
12.698000,-83.1250,5,100.28,0.76,10.03
12.708000,-86.5000,5,100.28,0.76,10.03
12.718000,-84.5000,5,100.28,0.76,10.03
12.728000,-86.7500,5,100.28,0.76,10.03
12.738000,-81.1250,5,100.28,0.76,10.03
12.748000,-85.0000,5,100.28,0.76,10.03
12.758000,-84.2500,5,100.28,0.76,10.03
12.768000,-81.8750,5,100.28,0.76,10.03
12.778000,-80.5000,5,100.28,0.76,10.03
12.788000,-84.3750,5,100.28,0.76,10.03
12.798000,-78.0000,5,100.28,0.76,10.03
12.808000,-85.0000,5,100.28,0.76,10.03
12.818000,-80.5000,5,100.28,0.76,10.03
12.828000,-88.8750,5,100.28,0.76,10.03
12.838000,-87.2500,5,100.28,0.76,10.03
12.848000,-86.3750,5,100.28,0.76,10.03
12.858000,-82.6250,5,100.28,0.76,10.03
12.868000,-88.6250,5,100.28,0.76,10.03
12.878000,-89.0000,5,100.28,0.76,10.03
12.888000,-81.0000,5,100.28,0.76,10.03
12.898000,-87.8750,5,100.28,0.76,10.03
12.908000,-73.3750,5,100.28,0.76,10.03
12.918000,-97.6250,5,100.28,0.76,10.03
12.928000,-79.2500,5,100.28,0.76,10.03
12.938000,-88.1250,5,100.28,0.76,10.03
12.948000,-86.6250,5,100.28,0.76,10.03
12.958000,-79.5000,5,100.28,0.76,10.03
12.968000,-84.5000,5,100.28,0.76,10.03
12.978000,-82.0000,5,100.28,0.76,10.03
12.988000,-74.0000,5,100.28,0.76,10.03
12.998000,-77.2500,5,100.28,0.76,10.03
13.008000,-71.3750,5,100.28,0.76,10.03
13.018000,-87.1250,5,100.28,0.76,10.03
13.028000,-87.6250,5,100.28,0.76,10.03
13.038000,-85.7500,5,100.28,0.76,10.03
13.048000,-86.5000,5,100.28,0.76,10.03
13.058000,-85.7500,5,100.28,0.76,10.03
13.068000,-86.5000,5,100.28,0.76,10.03
13.078000,-84.7500,5,100.28,0.76,10.03
13.088000,-86.5000,5,100.28,0.76,10.03
13.098000,-84.1250,5,100.28,0.76,10.03
13.108000,-85.7500,5,100.28,0.76,10.03
13.118000,-79.3750,5,100.28,0.76,10.03
13.128000,-84.7500,5,100.28,0.76,10.03
13.138000,-85.1250,5,100.28,0.76,10.03
13.148000,-85.5000,5,100.28,0.76,10.03
13.158000,-83.2500,5,100.28,0.76,10.03
13.168000,-78.0000,5,100.28,0.76,10.03
13.178000,-70.5000,5,100.28,0.76,10.03
13.188000,-76.1250,5,100.28,0.76,10.03
13.198000,-84.2500,5,100.28,0.76,10.03
13.208000,-94.2500,5,100.28,0.76,10.03
13.218000,-97.5000,5,100.28,0.76,10.03
13.228000,-96.2500,5,100.28,0.76,10.03
13.238000,-87.6250,5,100.28,0.76,10.03
13.248000,-93.8750,5,100.28,0.76,10.03
13.258000,-91.5000,5,100.28,0.76,10.03
13.268000,-90.1250,5,100.28,0.76,10.03
13.278000,-87.0000,5,100.28,0.76,10.03
13.288000,-86.3750,5,100.28,0.76,10.03
13.298000,-90.0000,5,100.28,0.76,10.03
13.308000,-92.3750,5,100.28,0.76,10.03
13.318000,-92.6250,5,100.28,0.76,10.03
13.328000,-93.7500,5,100.28,0.76,10.03
13.338000,-92.5000,5,100.28,0.76,10.03
13.348000,-90.5000,5,100.28,0.76,10.03
13.358000,-90.3750,5,100.28,0.76,10.03
13.368000,-86.6250,5,100.28,0.76,10.03
13.378000,-83.5000,5,100.28,0.76,10.03
13.388000,-86.8750,5,100.28,0.76,10.03
13.398000,-76.7500,5,100.28,0.76,10.03
13.408000,-80.3750,5,100.28,0.76,10.03
13.418000,-81.1250,5,100.28,0.76,10.03
13.428000,-82.2500,5,100.28,0.76,10.03
13.438000,-80.3750,5,100.28,0.76,10.03
13.448000,-82.5000,5,100.28,0.76,10.03
13.458000,-73.8750,5,100.28,0.76,10.03
13.468000,-79.0000,5,100.28,0.76,10.03
13.478000,-73.0000,5,100.28,0.76,10.03
13.488000,-75.5000,5,100.28,0.76,10.03
13.498000,-77.2500,5,100.28,0.76,10.03
13.508000,-73.5000,5,100.28,0.76,10.03
13.518000,-73.7500,5,100.28,0.76,10.03
13.528000,-72.3750,5,100.28,0.76,10.03
13.538000,-77.6250,5,100.28,0.76,10.03
13.548000,-80.3750,5,100.28,0.76,10.03
13.558000,-79.7500,5,100.28,0.76,10.03
13.568000,-84.2500,5,100.28,0.76,10.03
13.578000,-86.2500,5,100.28,0.76,10.03
13.588000,-82.8750,5,100.28,0.76,10.03
13.598000,-85.8750,5,100.28,0.76,10.03
13.608000,-76.1250,5,100.28,0.76,10.03
13.618000,-82.3750,5,100.28,0.76,10.03
13.628000,-79.7500,5,100.28,0.76,10.03
13.638000,-82.5000,5,100.28,0.76,10.03
13.648000,-81.1250,5,100.28,0.76,10.03
13.658000,-80.3750,5,100.28,0.76,10.03
13.668000,-68.3750,5,100.28,0.76,10.03
13.678000,-70.8750,5,100.28,0.76,10.03
13.688000,-72.0000,5,100.28,0.76,10.03
13.698000,-73.3750,5,100.28,0.76,10.03
13.708000,-70.8750,5,100.28,0.76,10.03
13.718000,-73.6250,5,100.28,0.76,10.03
13.728000,-76.5000,5,100.28,0.76,10.03
13.738000,-71.8750,5,100.28,0.76,10.03
13.748000,-83.2500,5,100.28,0.76,10.03
13.758000,-80.5000,5,100.28,0.76,10.03
13.768000,-84.3750,5,100.28,0.76,10.03
13.778000,-81.2500,5,100.28,0.76,10.03
13.788000,-85.0000,5,100.28,0.76,10.03
13.798000,-83.5000,5,100.28,0.76,10.03
13.808000,-81.7500,5,100.28,0.76,10.03
13.818000,-84.1250,5,100.28,0.76,10.03
13.828000,-84.1250,5,100.28,0.76,10.03
13.838000,-85.8750,5,100.28,0.76,10.03
13.848000,-86.0000,5,100.28,0.76,10.03
13.858000,-86.6250,5,100.28,0.76,10.03
13.868000,-86.3750,5,100.28,0.76,10.03
13.878000,-71.7500,5,100.28,0.76,10.03
13.888000,-78.0000,5,100.28,0.76,10.03
13.898000,-92.3750,5,100.28,0.76,10.03
13.908000,-90.1250,5,100.28,0.76,10.03
13.918000,-82.6250,5,100.28,0.76,10.03
13.928000,-80.7500,5,100.28,0.76,10.03
13.938000,-81.5000,5,100.28,0.76,10.03
13.948000,-82.1250,5,100.28,0.76,10.03
13.958000,-80.0000,5,100.28,0.76,10.03
13.968000,-81.0000,5,100.28,0.76,10.03
13.978000,-78.6250,5,100.28,0.76,10.03
13.988000,-80.0000,5,100.28,0.76,10.03
13.998000,-76.5000,5,100.28,0.76,10.03
14.008000,-76.5000,5,100.28,0.76,10.03
14.018000,-73.6250,5,100.28,0.76,10.03
14.028000,-75.1250,5,100.28,0.76,10.03
14.038000,-72.6250,5,100.28,0.76,10.03
14.048000,-76.1250,5,100.28,0.76,10.03
14.058000,-76.3750,5,100.28,0.76,10.03
14.068000,-80.2500,5,100.28,0.76,10.03
14.078000,-81.7500,5,100.28,0.76,10.03
14.088000,-80.3750,5,100.28,0.76,10.03
14.098000,-83.1250,5,100.28,0.76,10.03
14.108000,-82.6250,5,100.28,0.76,10.03
14.118000,-85.3750,5,100.28,0.76,10.03
14.128000,-83.3750,5,100.28,0.76,10.03
14.138000,-85.2500,5,100.28,0.76,10.03
14.148000,-84.0000,5,100.28,0.76,10.03
14.158000,-84.2500,5,100.28,0.76,10.03
14.168000,-75.0000,5,100.28,0.76,10.03
14.178000,-78.0000,5,100.28,0.76,10.03
14.188000,-77.0000,5,100.28,0.76,10.03
14.198000,-78.2500,5,100.28,0.76,10.03
14.208000,-77.2500,5,100.28,0.76,10.03
14.218000,-79.2500,5,100.28,0.76,10.03
14.228000,-82.5000,5,100.28,0.76,10.03
14.238000,-80.5000,5,100.28,0.76,10.03
14.248000,-84.1250,5,100.28,0.76,10.03
14.258000,-81.1250,5,100.28,0.76,10.03
14.268000,-85.7500,5,100.28,0.76,10.03
14.278000,-87.8750,5,100.28,0.76,10.03
14.288000,-91.1250,5,100.28,0.76,10.03
14.298000,-86.3750,5,100.28,0.76,10.03
14.308000,-83.2500,5,100.28,0.76,10.03
14.318000,-85.5000,5,100.28,0.76,10.03
14.328000,-86.8750,5,100.28,0.76,10.03
14.338000,-91.8750,5,100.28,0.76,10.03
14.348000,-87.0000,5,100.28,0.76,10.03
14.358000,-91.3750,5,100.28,0.76,10.03
14.368000,-88.5000,5,100.28,0.76,10.03
14.378000,-92.0000,5,100.28,0.76,10.03
14.388000,-92.8750,5,100.28,0.76,10.03
14.398000,-93.2500,5,100.28,0.76,10.03
14.408000,-93.3750,5,100.28,0.76,10.03
14.418000,-92.8750,5,100.28,0.76,10.03
14.428000,-93.7500,5,100.28,0.76,10.03
14.438000,-93.3750,5,100.28,0.76,10.03
14.448000,-93.1250,5,100.28,0.76,10.03
14.458000,-91.5000,5,100.28,0.76,10.03
14.468000,-88.7500,5,100.28,0.76,10.03
14.478000,-81.3750,5,100.28,0.76,10.03
14.488000,-85.1250,5,100.28,0.76,10.03
14.498000,-97.3750,5,100.28,0.76,10.03
14.508000,-102.1250,5,100.28,0.76,10.03
14.518000,-90.0000,5,100.28,0.76,10.03
14.528000,-90.7500,5,100.28,0.76,10.03
14.538000,-89.1250,5,100.28,0.76,10.03
14.548000,-90.1250,5,100.28,0.76,10.03
14.558000,-88.0000,7,87.39,-0.67,6.49
14.568000,-89.0000,7,87.39,-0.67,6.49
14.578000,-86.1250,7,87.39,-0.67,6.49
14.588000,-89.7500,7,87.39,-0.67,6.49
14.598000,-87.3750,7,87.39,-0.67,6.49
14.608000,-87.1250,7,87.39,-0.67,6.49
14.618000,-82.7500,7,87.39,-0.67,6.49
14.628000,-85.2500,7,87.39,-0.67,6.49
14.638000,-81.5000,7,87.39,-0.67,6.49
14.648000,-81.6250,7,87.39,-0.67,6.49
14.658000,-78.5000,7,87.39,-0.67,6.49
14.668000,-80.0000,7,87.39,-0.67,6.49
14.678000,-77.8750,7,87.39,-0.67,6.49
14.688000,-80.2500,7,87.39,-0.67,6.49
14.698000,-78.0000,7,87.39,-0.67,6.49
14.708000,-84.0000,7,87.39,-0.67,6.49
14.718000,-84.2500,7,87.39,-0.67,6.49
14.728000,-92.2500,7,87.39,-0.67,6.49
14.738000,-91.8750,7,87.39,-0.67,6.49
14.748000,-96.5000,7,87.39,-0.67,6.49
14.758000,-94.7500,7,87.39,-0.67,6.49
14.768000,-97.0000,7,87.39,-0.67,6.49
14.778000,-94.8750,7,87.39,-0.67,6.49
14.788000,-96.0000,7,87.39,-0.67,6.49
14.798000,-94.6250,7,87.39,-0.67,6.49
14.808000,-96.0000,7,87.39,-0.67,6.49
14.818000,-94.2500,7,87.39,-0.67,6.49
14.828000,-95.3750,7,87.39,-0.67,6.49
14.838000,-92.8750,7,87.39,-0.67,6.49
14.848000,-94.6250,7,87.39,-0.67,6.49
14.858000,-93.2500,7,87.39,-0.67,6.49
14.868000,-95.3750,7,87.39,-0.67,6.49
14.878000,-93.8750,7,87.39,-0.67,6.49
14.888000,-93.6250,7,87.39,-0.67,6.49
14.898000,-93.5000,7,87.39,-0.67,6.49
14.908000,-94.1250,7,87.39,-0.67,6.49
14.918000,-93.1250,7,87.39,-0.67,6.49
14.928000,-94.7500,7,87.39,-0.67,6.49
14.938000,-93.3750,7,87.39,-0.67,6.49
14.948000,-94.2500,7,87.39,-0.67,6.49
14.958000,-92.6250,7,87.39,-0.67,6.49
14.968000,-94.6250,7,87.39,-0.67,6.49
14.978000,-93.3750,7,87.39,-0.67,6.49
14.988000,-94.5000,7,87.39,-0.67,6.49
14.998000,-92.2500,7,87.39,-0.67,6.49
15.008000,-92.1250,7,87.39,-0.67,6.49
15.018000,-92.1250,7,87.39,-0.67,6.49
15.028000,-89.6250,7,87.39,-0.67,6.49
15.038000,-91.7500,7,87.39,-0.67,6.49
15.048000,-89.1250,7,87.39,-0.67,6.49
15.058000,-83.8750,7,87.39,-0.67,6.49
15.068000,-89.2500,7,87.39,-0.67,6.49
15.078000,-83.2500,7,87.39,-0.67,6.49
15.088000,-86.8750,7,87.39,-0.67,6.49
15.098000,-83.6250,7,87.39,-0.67,6.49
15.108000,-83.7500,7,87.39,-0.67,6.49
15.118000,-84.7500,7,87.39,-0.67,6.49
15.128000,-84.6250,7,87.39,-0.67,6.49
15.138000,-84.7500,7,87.39,-0.67,6.49
15.148000,-84.6250,7,87.39,-0.67,6.49
15.158000,-86.6250,7,87.39,-0.67,6.49
15.168000,-83.7500,7,87.39,-0.67,6.49
15.178000,-85.3750,7,87.39,-0.67,6.49
15.188000,-80.8750,7,87.39,-0.67,6.49
15.198000,-78.5000,7,87.39,-0.67,6.49
15.208000,-73.6250,7,87.39,-0.67,6.49
15.218000,-79.3750,7,87.39,-0.67,6.49
15.228000,-99.8750,7,87.39,-0.67,6.49
15.238000,-89.8750,7,87.39,-0.67,6.49
15.248000,-86.0000,7,87.39,-0.67,6.49
15.258000,-81.7500,7,87.39,-0.67,6.49
15.268000,-86.7500,7,87.39,-0.67,6.49
15.278000,-86.6250,7,87.39,-0.67,6.49
15.288000,-85.3750,7,87.39,-0.67,6.49
15.298000,-85.6250,7,87.39,-0.67,6.49
15.308000,-84.6250,7,87.39,-0.67,6.49
15.318000,-85.0000,7,87.39,-0.67,6.49
15.328000,-83.2500,7,87.39,-0.67,6.49
15.338000,-84.0000,7,87.39,-0.67,6.49
15.348000,-83.1250,7,87.39,-0.67,6.49
15.358000,-82.2500,7,87.39,-0.67,6.49
15.368000,-80.6250,7,87.39,-0.67,6.49
15.378000,-81.3750,7,87.39,-0.67,6.49
15.388000,-78.2500,7,87.39,-0.67,6.49
15.398000,-78.2500,7,87.39,-0.67,6.49
15.408000,-77.5000,7,87.39,-0.67,6.49
15.418000,-78.1250,7,87.39,-0.67,6.49
15.428000,-78.1250,7,87.39,-0.67,6.49
15.438000,-81.1250,7,87.39,-0.67,6.49
15.448000,-81.3750,7,87.39,-0.67,6.49
15.458000,-85.3750,7,87.39,-0.67,6.49
15.468000,-85.6250,7,87.39,-0.67,6.49
15.478000,-88.6250,7,87.39,-0.67,6.49
15.488000,-87.0000,7,87.39,-0.67,6.49
15.498000,-89.0000,7,87.39,-0.67,6.49
15.508000,-86.5000,7,87.39,-0.67,6.49
15.518000,-89.2500,7,87.39,-0.67,6.49
15.528000,-87.5000,7,87.39,-0.67,6.49
15.538000,-88.8750,7,87.39,-0.67,6.49
15.548000,-87.1250,7,87.39,-0.67,6.49
15.558000,-88.6250,7,87.39,-0.67,6.49
15.568000,-86.3750,7,87.39,-0.67,6.49
15.578000,-88.5000,7,87.39,-0.67,6.49
15.588000,-86.2500,7,87.39,-0.67,6.49
15.598000,-88.6250,7,87.39,-0.67,6.49
15.608000,-86.2500,7,87.39,-0.67,6.49
15.618000,-89.3750,7,87.39,-0.67,6.49
15.628000,-86.6250,7,87.39,-0.67,6.49
15.638000,-89.3750,7,87.39,-0.67,6.49
15.648000,-86.8750,7,87.39,-0.67,6.49
15.658000,-88.6250,7,87.39,-0.67,6.49
15.668000,-87.1250,7,87.39,-0.67,6.49
15.678000,-88.6250,7,87.39,-0.67,6.49
15.688000,-87.1250,7,87.39,-0.67,6.49
15.698000,-88.7500,7,87.39,-0.67,6.49
15.708000,-87.0000,7,87.39,-0.67,6.49
15.718000,-88.7500,7,87.39,-0.67,6.49
15.728000,-86.7500,7,87.39,-0.67,6.49
15.738000,-88.5000,7,87.39,-0.67,6.49
15.748000,-87.0000,7,87.39,-0.67,6.49
15.758000,-89.2500,7,87.39,-0.67,6.49
15.768000,-85.5000,7,87.39,-0.67,6.49
15.778000,-87.6250,7,87.39,-0.67,6.49
15.788000,-84.7500,7,87.39,-0.67,6.49
15.798000,-87.0000,7,87.39,-0.67,6.49
15.808000,-85.7500,7,87.39,-0.67,6.49
15.818000,-87.3750,7,87.39,-0.67,6.49
15.828000,-85.7500,7,87.39,-0.67,6.49
15.838000,-88.8750,7,87.39,-0.67,6.49
15.848000,-86.8750,7,87.39,-0.67,6.49
15.858000,-88.5000,7,87.39,-0.67,6.49
15.868000,-87.3750,7,87.39,-0.67,6.49
15.878000,-88.7500,7,87.39,-0.67,6.49
15.888000,-87.3750,7,87.39,-0.67,6.49
15.898000,-86.7500,7,87.39,-0.67,6.49
15.908000,-86.5000,7,87.39,-0.67,6.49
15.918000,-82.2500,7,87.39,-0.67,6.49
15.928000,-76.8750,7,87.39,-0.67,6.49
15.938000,-77.6250,7,87.39,-0.67,6.49
15.948000,-85.3750,7,87.39,-0.67,6.49
15.958000,-96.1250,7,87.39,-0.67,6.49
15.968000,-79.8750,7,87.39,-0.67,6.49
15.978000,-83.6250,7,87.39,-0.67,6.49
15.988000,-79.0000,7,87.39,-0.67,6.49
15.998000,-84.0000,7,87.39,-0.67,6.49
16.008000,-78.6250,7,87.39,-0.67,6.49
16.018000,-76.3750,7,87.39,-0.67,6.49
16.028000,-78.3750,7,87.39,-0.67,6.49
16.038000,-74.7500,7,87.39,-0.67,6.49
16.048000,-76.2500,7,87.39,-0.67,6.49
16.058000,-73.1250,7,87.39,-0.67,6.49
16.068000,-75.1250,7,87.39,-0.67,6.49
16.078000,-73.3750,7,87.39,-0.67,6.49
16.088000,-72.8750,7,87.39,-0.67,6.49
16.098000,-70.6250,7,87.39,-0.67,6.49
16.108000,-72.1250,7,87.39,-0.67,6.49
16.118000,-75.2500,7,87.39,-0.67,6.49
16.128000,-70.6250,7,87.39,-0.67,6.49
16.138000,-74.2500,7,87.39,-0.67,6.49
16.148000,-71.1250,7,87.39,-0.67,6.49
16.158000,-76.3750,7,87.39,-0.67,6.49
16.168000,-80.0000,7,87.39,-0.67,6.49
16.178000,-80.5000,7,87.39,-0.67,6.49
16.188000,-83.5000,7,87.39,-0.67,6.49
16.198000,-83.0000,7,87.39,-0.67,6.49
16.208000,-85.0000,7,87.39,-0.67,6.49
16.218000,-86.0000,7,87.39,-0.67,6.49
16.228000,-85.5000,7,87.39,-0.67,6.49
16.238000,-85.8750,7,87.39,-0.67,6.49
16.248000,-85.2500,7,87.39,-0.67,6.49
16.258000,-85.6250,7,87.39,-0.67,6.49
16.268000,-78.8750,7,87.39,-0.67,6.49
16.278000,-77.0000,7,87.39,-0.67,6.49
16.288000,-76.8750,7,87.39,-0.67,6.49
16.298000,-86.7500,7,87.39,-0.67,6.49
16.308000,-78.0000,7,87.39,-0.67,6.49
16.318000,-84.8750,7,87.39,-0.67,6.49
16.328000,-85.7500,7,87.39,-0.67,6.49
16.338000,-84.5000,7,87.39,-0.67,6.49
16.348000,-84.2500,7,87.39,-0.67,6.49
16.358000,-84.7500,7,87.39,-0.67,6.49
16.368000,-80.2500,7,87.39,-0.67,6.49
16.378000,-78.8750,7,87.39,-0.67,6.49
16.388000,-92.0000,7,87.39,-0.67,6.49
16.398000,-93.6250,7,87.39,-0.67,6.49
16.408000,-81.7500,7,87.39,-0.67,6.49
16.418000,-82.6250,7,87.39,-0.67,6.49
16.428000,-82.8750,7,87.39,-0.67,6.49
16.438000,-78.0000,7,87.39,-0.67,6.49
16.448000,-82.2500,7,87.39,-0.67,6.49
16.458000,-79.8750,7,87.39,-0.67,6.49
16.468000,-75.5000,7,87.39,-0.67,6.49
16.478000,-73.3750,7,87.39,-0.67,6.49
16.488000,-83.6250,7,87.39,-0.67,6.49
16.498000,-84.6250,7,87.39,-0.67,6.49
16.508000,-76.8750,7,87.39,-0.67,6.49
16.518000,-82.5000,7,87.39,-0.67,6.49
16.528000,-84.5000,7,87.39,-0.67,6.49
16.538000,-78.7500,7,87.39,-0.67,6.49
16.548000,-85.8750,7,87.39,-0.67,6.49
16.558000,-77.7500,7,87.39,-0.67,6.49
16.568000,-83.2500,7,87.39,-0.67,6.49
16.578000,-88.2500,7,87.39,-0.67,6.49
16.588000,-86.6250,7,87.39,-0.67,6.49
16.598000,-86.2500,7,87.39,-0.67,6.49
16.608000,-87.1250,7,87.39,-0.67,6.49
16.618000,-81.7500,7,87.39,-0.67,6.49
16.628000,-77.3750,7,87.39,-0.67,6.49
16.638000,-76.2500,7,87.39,-0.67,6.49
16.648000,-86.8750,7,87.39,-0.67,6.49
16.658000,-98.6250,7,87.39,-0.67,6.49
16.668000,-87.7500,7,87.39,-0.67,6.49
16.678000,-81.6250,7,87.39,-0.67,6.49
16.688000,-85.3750,7,87.39,-0.67,6.49
16.698000,-83.1250,7,87.39,-0.67,6.49
16.708000,-83.5000,7,87.39,-0.67,6.49
16.718000,-73.5000,7,87.39,-0.67,6.49
16.728000,-73.5000,7,87.39,-0.67,6.49
16.738000,-70.2500,7,87.39,-0.67,6.49
16.748000,-68.7500,7,87.39,-0.67,6.49
16.758000,-85.3750,7,87.39,-0.67,6.49
16.768000,-87.6250,7,87.39,-0.67,6.49
16.778000,-83.2500,7,87.39,-0.67,6.49
16.788000,-84.0000,7,87.39,-0.67,6.49
16.798000,-84.1250,7,87.39,-0.67,6.49
16.808000,-79.8750,7,87.39,-0.67,6.49
16.818000,-75.7500,7,87.39,-0.67,6.49
16.828000,-87.5000,7,87.39,-0.67,6.49
16.838000,-91.3750,7,87.39,-0.67,6.49
16.848000,-83.7500,7,87.39,-0.67,6.49
16.858000,-83.2500,7,87.39,-0.67,6.49
16.868000,-80.8750,7,87.39,-0.67,6.49
16.878000,-84.6250,7,87.39,-0.67,6.49
16.888000,-95.8750,7,87.39,-0.67,6.49
16.898000,-89.5000,7,87.39,-0.67,6.49
16.908000,-89.8750,7,87.39,-0.67,6.49
16.918000,-87.2500,7,87.39,-0.67,6.49
16.928000,-85.5000,7,87.39,-0.67,6.49
16.938000,-82.8750,7,87.39,-0.67,6.49
16.948000,-79.1250,7,87.39,-0.67,6.49
16.958000,-79.6250,7,87.39,-0.67,6.49
16.968000,-78.2500,7,87.39,-0.67,6.49
16.978000,-78.0000,7,87.39,-0.67,6.49
16.988000,-78.1250,7,87.39,-0.67,6.49
16.998000,-81.5000,7,87.39,-0.67,6.49
17.008000,-85.6250,7,87.39,-0.67,6.49
17.018000,-84.1250,7,87.39,-0.67,6.49
17.028000,-90.5000,7,87.39,-0.67,6.49
17.038000,-88.8750,7,87.39,-0.67,6.49
17.048000,-88.6250,7,87.39,-0.67,6.49
17.058000,-85.3750,7,87.39,-0.67,6.49
17.068000,-81.8750,7,87.39,-0.67,6.49
17.078000,-90.8750,7,87.39,-0.67,6.49
17.088000,-86.6250,7,87.39,-0.67,6.49
17.098000,-83.8750,7,87.39,-0.67,6.49
17.108000,-78.8750,7,87.39,-0.67,6.49
17.118000,-80.6250,7,87.39,-0.67,6.49
17.128000,-81.3750,7,87.39,-0.67,6.49
17.138000,-85.2500,7,87.39,-0.67,6.49
17.148000,-87.5000,7,87.39,-0.67,6.49
17.158000,-89.7500,7,87.39,-0.67,6.49
17.168000,-82.1250,7,87.39,-0.67,6.49
17.178000,-90.2500,7,87.39,-0.67,6.49
17.188000,-90.0000,7,87.39,-0.67,6.49
17.198000,-91.6250,7,87.39,-0.67,6.49
17.208000,-90.5000,7,87.39,-0.67,6.49
17.218000,-91.1250,7,87.39,-0.67,6.49
17.228000,-89.5000,7,87.39,-0.67,6.49
17.238000,-88.6250,7,87.39,-0.67,6.49
17.248000,-89.0000,7,87.39,-0.67,6.49
17.258000,-88.7500,7,87.39,-0.67,6.49
17.268000,-86.7500,7,87.39,-0.67,6.49
17.278000,-80.8750,7,87.39,-0.67,6.49
17.288000,-74.7500,7,87.39,-0.67,6.49
17.298000,-87.3750,7,87.39,-0.67,6.49
17.308000,-73.0000,7,87.39,-0.67,6.49
17.318000,-78.6250,7,87.39,-0.67,6.49
17.328000,-80.1250,7,87.39,-0.67,6.49
17.338000,-81.3750,7,87.39,-0.67,6.49
17.348000,-81.7500,7,87.39,-0.67,6.49
17.358000,-76.3750,7,87.39,-0.67,6.49
17.368000,-73.3750,7,87.39,-0.67,6.49
17.378000,-94.7500,7,87.39,-0.67,6.49
17.388000,-91.5000,7,87.39,-0.67,6.49
17.398000,-89.2500,7,87.39,-0.67,6.49
17.408000,-91.6250,7,87.39,-0.67,6.49
17.418000,-89.7500,7,87.39,-0.67,6.49
17.428000,-88.6250,7,87.39,-0.67,6.49
17.438000,-92.0000,7,87.39,-0.67,6.49
17.448000,-91.2500,7,87.39,-0.67,6.49
17.458000,-87.2500,7,87.39,-0.67,6.49
17.468000,-97.0000,7,87.39,-0.67,6.49
17.478000,-102.3750,7,87.39,-0.67,6.49
17.488000,-106.1250,7,87.39,-0.67,6.49
17.498000,-93.0000,7,87.39,-0.67,6.49
17.508000,-96.6250,7,87.39,-0.67,6.49
17.518000,-106.0000,7,87.39,-0.67,6.49
17.528000,-100.6250,7,87.39,-0.67,6.49
17.538000,-102.1250,7,87.39,-0.67,6.49
17.548000,-100.2500,7,87.39,-0.67,6.49
17.558000,-102.7500,7,87.39,-0.67,6.49
17.568000,-98.2500,7,87.39,-0.67,6.49
17.578000,-88.6250,7,87.39,-0.67,6.49
17.588000,-96.6250,7,87.39,-0.67,6.49
17.598000,-97.7500,7,87.39,-0.67,6.49
17.608000,-99.2500,7,87.39,-0.67,6.49
17.618000,-95.2500,7,87.39,-0.67,6.49
17.628000,-101.8750,7,87.39,-0.67,6.49
17.638000,-97.3750,7,87.39,-0.67,6.49
17.648000,-101.5000,7,87.39,-0.67,6.49
17.658000,-99.2500,7,87.39,-0.67,6.49
17.668000,-108.2500,7,87.39,-0.67,6.49
17.678000,-113.3750,7,87.39,-0.67,6.49
17.688000,-110.1250,7,87.39,-0.67,6.49
17.698000,-113.6250,7,87.39,-0.67,6.49
17.708000,-97.5000,7,87.39,-0.67,6.49
17.718000,-91.6250,7,87.39,-0.67,6.49
17.728000,-99.0000,7,87.39,-0.67,6.49
17.738000,-94.0000,7,87.39,-0.67,6.49
17.748000,-82.8750,7,87.39,-0.67,6.49
17.758000,-82.3750,7,87.39,-0.67,6.49
17.768000,-83.0000,7,87.39,-0.67,6.49
17.778000,-73.1250,7,87.39,-0.67,6.49
17.788000,-88.2500,7,87.39,-0.67,6.49
17.798000,-85.7500,7,87.39,-0.67,6.49
17.808000,-85.8750,7,87.39,-0.67,6.49
17.818000,-83.2500,7,87.39,-0.67,6.49
17.828000,-80.8750,7,87.39,-0.67,6.49
17.838000,-81.8750,7,87.39,-0.67,6.49
17.848000,-78.2500,7,87.39,-0.67,6.49
17.858000,-80.0000,7,87.39,-0.67,6.49
17.868000,-63.3750,7,87.39,-0.67,6.49
17.878000,-66.1250,7,87.39,-0.67,6.49
17.888000,-64.0000,7,87.39,-0.67,6.49
17.898000,-63.6250,7,87.39,-0.67,6.49
17.908000,-70.5000,7,87.39,-0.67,6.49
17.918000,-69.2500,7,87.39,-0.67,6.49
17.928000,-73.5000,7,87.39,-0.67,6.49
17.938000,-78.0000,7,87.39,-0.67,6.49
17.948000,-77.7500,7,87.39,-0.67,6.49
17.958000,-76.2500,7,87.39,-0.67,6.49
17.968000,-79.1250,7,87.39,-0.67,6.49
17.978000,-79.1250,7,87.39,-0.67,6.49
17.988000,-73.3750,7,87.39,-0.67,6.49
17.998000,-80.1250,7,87.39,-0.67,6.49
18.008000,-82.0000,7,87.39,-0.67,6.49
18.018000,-81.0000,7,87.39,-0.67,6.49
18.028000,-89.0000,7,87.39,-0.67,6.49
18.038000,-79.7500,7,87.39,-0.67,6.49
18.048000,-81.6250,7,87.39,-0.67,6.49
18.058000,-69.2500,7,87.39,-0.67,6.49
18.068000,-70.0000,7,87.39,-0.67,6.49
18.078000,-69.1250,7,87.39,-0.67,6.49
18.088000,-55.0000,7,87.39,-0.67,6.49
18.098000,-45.6250,7,87.39,-0.67,6.49
18.108000,-59.0000,7,87.39,-0.67,6.49
18.118000,-72.0000,7,87.39,-0.67,6.49
18.128000,-70.5000,7,87.39,-0.67,6.49
18.138000,-57.0000,7,87.39,-0.67,6.49
18.148000,-56.2500,7,87.39,-0.67,6.49
18.158000,-56.2500,7,87.39,-0.67,6.49
18.168000,-54.3750,7,87.39,-0.67,6.49
18.178000,-53.8750,7,87.39,-0.67,6.49
18.188000,-52.1250,7,87.39,-0.67,6.49
18.198000,-53.6250,7,87.39,-0.67,6.49
18.208000,-51.3750,7,87.39,-0.67,6.49
18.218000,-54.1250,7,87.39,-0.67,6.49
18.228000,-48.3750,7,87.39,-0.67,6.49
18.238000,-48.0000,7,87.39,-0.67,6.49
18.248000,-52.5000,7,87.39,-0.67,6.49
18.258000,-49.7500,7,87.39,-0.67,6.49
18.268000,-52.8750,7,87.39,-0.67,6.49
18.278000,-50.1250,7,87.39,-0.67,6.49
18.288000,-54.5000,7,87.39,-0.67,6.49
18.298000,-56.2500,7,87.39,-0.67,6.49
18.308000,-64.0000,7,87.39,-0.67,6.49
18.318000,-63.1250,7,87.39,-0.67,6.49
18.328000,-70.6250,7,87.39,-0.67,6.49
18.338000,-69.6250,7,87.39,-0.67,6.49
18.348000,-75.7500,7,87.39,-0.67,6.49
18.358000,-74.8750,7,87.39,-0.67,6.49
18.368000,-79.3750,7,87.39,-0.67,6.49
18.378000,-81.7500,7,87.39,-0.67,6.49
18.388000,-84.8750,7,87.39,-0.67,6.49
18.398000,-80.8750,7,87.39,-0.67,6.49
18.408000,-78.2500,7,87.39,-0.67,6.49
18.418000,-78.2500,7,87.39,-0.67,6.49
18.428000,-81.5000,7,87.39,-0.67,6.49
18.438000,-83.6250,7,87.39,-0.67,6.49
18.448000,-81.0000,7,87.39,-0.67,6.49
18.458000,-82.8750,7,87.39,-0.67,6.49
18.468000,-87.6250,7,87.39,-0.67,6.49
18.478000,-81.0000,7,87.39,-0.67,6.49
18.488000,-96.7500,7,87.39,-0.67,6.49
18.498000,-93.0000,7,87.39,-0.67,6.49
18.508000,-93.2500,7,87.39,-0.67,6.49
18.518000,-93.2500,7,87.39,-0.67,6.49
18.528000,-90.3750,7,87.39,-0.67,6.49
18.538000,-69.5000,7,87.39,-0.67,6.49
18.548000,-80.0000,7,87.39,-0.67,6.49
18.558000,-76.2500,7,87.39,-0.67,6.49
18.568000,-71.3750,7,87.39,-0.67,6.49
18.578000,-72.0000,7,87.39,-0.67,6.49
18.588000,-65.1250,7,87.39,-0.67,6.49
18.598000,-62.2500,7,87.39,-0.67,6.49
18.608000,-58.0000,7,87.39,-0.67,6.49
18.618000,-62.0000,7,87.39,-0.67,6.49
18.628000,-61.1250,9,85.07,-0.10,5.02
18.638000,-58.5000,9,85.07,-0.10,5.02
18.648000,-62.8750,9,85.07,-0.10,5.02
18.658000,-57.2500,9,85.07,-0.10,5.02
18.668000,-60.5000,9,85.07,-0.10,5.02
18.678000,-53.3750,9,85.07,-0.10,5.02
18.688000,-52.1250,9,85.07,-0.10,5.02
18.698000,-55.6250,9,85.07,-0.10,5.02
18.708000,-61.5000,9,85.07,-0.10,5.02
18.718000,-76.6250,9,85.07,-0.10,5.02
18.728000,-64.1250,9,85.07,-0.10,5.02
18.738000,-63.3750,9,85.07,-0.10,5.02
18.748000,-64.1250,9,85.07,-0.10,5.02
18.758000,-65.0000,9,85.07,-0.10,5.02
18.768000,-68.5000,9,85.07,-0.10,5.02
18.778000,-69.3750,9,85.07,-0.10,5.02
18.788000,-68.0000,9,85.07,-0.10,5.02
18.798000,-67.8750,9,85.07,-0.10,5.02
18.808000,-67.7500,9,85.07,-0.10,5.02
18.818000,-70.6250,9,85.07,-0.10,5.02
18.828000,-68.3750,9,85.07,-0.10,5.02
18.838000,-72.3750,9,85.07,-0.10,5.02
18.848000,-70.1250,9,85.07,-0.10,5.02
18.858000,-70.5000,9,85.07,-0.10,5.02
18.868000,-67.1250,9,85.07,-0.10,5.02
18.878000,-79.3750,9,85.07,-0.10,5.02
18.888000,-72.1250,9,85.07,-0.10,5.02
18.898000,-72.2500,9,85.07,-0.10,5.02
18.908000,-71.6250,9,85.07,-0.10,5.02
18.918000,-75.5000,9,85.07,-0.10,5.02
18.928000,-78.5000,9,85.07,-0.10,5.02
18.938000,-87.0000,9,85.07,-0.10,5.02
18.948000,-87.0000,9,85.07,-0.10,5.02
18.958000,-90.8750,9,85.07,-0.10,5.02
18.968000,-89.5000,9,85.07,-0.10,5.02
18.978000,-92.6250,9,85.07,-0.10,5.02
18.988000,-88.7500,9,85.07,-0.10,5.02
18.998000,-92.1250,9,85.07,-0.10,5.02
19.008000,-90.2500,9,85.07,-0.10,5.02
19.018000,-93.3750,9,85.07,-0.10,5.02
19.028000,-90.8750,9,85.07,-0.10,5.02
19.038000,-94.5000,9,85.07,-0.10,5.02
19.048000,-91.3750,9,85.07,-0.10,5.02
19.058000,-94.5000,9,85.07,-0.10,5.02
19.068000,-92.3750,9,85.07,-0.10,5.02
19.078000,-93.8750,9,85.07,-0.10,5.02
19.088000,-101.2500,9,85.07,-0.10,5.02
19.098000,-103.8750,9,85.07,-0.10,5.02
19.108000,-100.8750,9,85.07,-0.10,5.02
19.118000,-103.0000,9,85.07,-0.10,5.02
19.128000,-99.0000,9,85.07,-0.10,5.02
19.138000,-95.5000,9,85.07,-0.10,5.02
19.148000,-89.7500,9,85.07,-0.10,5.02
19.158000,-92.0000,9,85.07,-0.10,5.02
19.168000,-86.0000,9,85.07,-0.10,5.02
19.178000,-92.3750,9,85.07,-0.10,5.02
19.188000,-90.3750,9,85.07,-0.10,5.02
19.198000,-97.7500,9,85.07,-0.10,5.02
19.208000,-98.5000,9,85.07,-0.10,5.02
19.218000,-102.5000,9,85.07,-0.10,5.02
19.228000,-99.8750,9,85.07,-0.10,5.02
19.238000,-104.2500,9,85.07,-0.10,5.02
19.248000,-100.6250,9,85.07,-0.10,5.02
19.258000,-104.6250,9,85.07,-0.10,5.02
19.268000,-101.2500,9,85.07,-0.10,5.02
19.278000,-105.3750,9,85.07,-0.10,5.02
19.288000,-103.2500,9,85.07,-0.10,5.02
19.298000,-105.1250,9,85.07,-0.10,5.02
19.308000,-100.7500,9,85.07,-0.10,5.02
19.318000,-99.3750,9,85.07,-0.10,5.02
19.328000,-93.0000,9,85.07,-0.10,5.02
19.338000,-101.5000,9,85.07,-0.10,5.02
19.348000,-113.7500,9,85.07,-0.10,5.02
19.358000,-112.6250,9,85.07,-0.10,5.02
19.368000,-95.6250,9,85.07,-0.10,5.02
19.378000,-94.8750,9,85.07,-0.10,5.02
19.388000,-87.1250,9,85.07,-0.10,5.02
19.398000,-90.7500,9,85.07,-0.10,5.02
19.408000,-81.8750,9,85.07,-0.10,5.02
19.418000,-86.1250,9,85.07,-0.10,5.02
19.428000,-79.5000,9,85.07,-0.10,5.02
19.438000,-82.3750,9,85.07,-0.10,5.02
19.448000,-76.2500,9,85.07,-0.10,5.02
19.458000,-70.7500,9,85.07,-0.10,5.02
19.468000,-73.2500,9,85.07,-0.10,5.02
19.478000,-69.3750,9,85.07,-0.10,5.02
19.488000,-68.6250,9,85.07,-0.10,5.02
19.498000,-65.5000,9,85.07,-0.10,5.02
19.508000,-63.3750,9,85.07,-0.10,5.02
19.518000,-64.5000,9,85.07,-0.10,5.02
19.528000,-64.3750,9,85.07,-0.10,5.02
19.538000,-66.5000,9,85.07,-0.10,5.02
19.548000,-68.2500,9,85.07,-0.10,5.02
19.558000,-75.1250,9,85.07,-0.10,5.02
19.568000,-74.7500,9,85.07,-0.10,5.02
19.578000,-81.0000,9,85.07,-0.10,5.02
19.588000,-78.5000,9,85.07,-0.10,5.02
19.598000,-87.6250,9,85.07,-0.10,5.02
19.608000,-91.2500,9,85.07,-0.10,5.02
19.618000,-88.7500,9,85.07,-0.10,5.02
19.628000,-92.5000,9,85.07,-0.10,5.02
19.638000,-92.1250,9,85.07,-0.10,5.02
19.648000,-94.5000,9,85.07,-0.10,5.02
19.658000,-101.7500,9,85.07,-0.10,5.02
19.668000,-104.2500,9,85.07,-0.10,5.02
19.678000,-104.0000,9,85.07,-0.10,5.02
19.688000,-106.5000,9,85.07,-0.10,5.02
19.698000,-104.8750,9,85.07,-0.10,5.02
19.708000,-103.0000,9,85.07,-0.10,5.02
19.718000,-100.7500,9,85.07,-0.10,5.02
19.728000,-100.5000,9,85.07,-0.10,5.02
19.738000,-97.5000,9,85.07,-0.10,5.02
19.748000,-100.1250,9,85.07,-0.10,5.02
19.758000,-101.2500,9,85.07,-0.10,5.02
19.768000,-101.5000,9,85.07,-0.10,5.02
19.778000,-102.1250,9,85.07,-0.10,5.02
19.788000,-105.3750,9,85.07,-0.10,5.02
19.798000,-104.7500,9,85.07,-0.10,5.02
19.808000,-108.5000,9,85.07,-0.10,5.02
19.818000,-107.6250,9,85.07,-0.10,5.02
19.828000,-110.0000,9,85.07,-0.10,5.02
19.838000,-108.8750,9,85.07,-0.10,5.02
19.848000,-107.2500,9,85.07,-0.10,5.02
19.858000,-100.6250,9,85.07,-0.10,5.02
19.868000,-102.6250,9,85.07,-0.10,5.02
19.878000,-95.5000,9,85.07,-0.10,5.02
19.888000,-90.7500,9,85.07,-0.10,5.02
19.898000,-82.7500,9,85.07,-0.10,5.02
19.908000,-84.1250,9,85.07,-0.10,5.02
19.918000,-78.1250,9,85.07,-0.10,5.02
19.928000,-81.0000,9,85.07,-0.10,5.02
19.938000,-76.0000,9,85.07,-0.10,5.02
19.948000,-79.1250,9,85.07,-0.10,5.02
19.958000,-71.7500,9,85.07,-0.10,5.02
19.968000,-68.3750,9,85.07,-0.10,5.02
19.978000,-62.5000,9,85.07,-0.10,5.02
19.988000,-71.8750,9,85.07,-0.10,5.02
19.998000,-84.8750,9,85.07,-0.10,5.02
20.008000,-78.8750,9,85.07,-0.10,5.02
20.018000,-70.1250,9,85.07,-0.10,5.02
20.028000,-75.1250,9,85.07,-0.10,5.02
20.038000,-71.3750,9,85.07,-0.10,5.02
20.048000,-75.1250,9,85.07,-0.10,5.02
20.058000,-71.8750,9,85.07,-0.10,5.02
20.068000,-73.8750,9,85.07,-0.10,5.02
20.078000,-70.0000,9,85.07,-0.10,5.02
20.088000,-73.0000,9,85.07,-0.10,5.02
20.098000,-68.7500,9,85.07,-0.10,5.02
20.108000,-71.2500,9,85.07,-0.10,5.02
20.118000,-66.7500,9,85.07,-0.10,5.02
20.128000,-68.0000,9,85.07,-0.10,5.02
20.138000,-64.3750,9,85.07,-0.10,5.02
20.148000,-66.1250,9,85.07,-0.10,5.02
20.158000,-62.7500,9,85.07,-0.10,5.02
20.168000,-64.1250,9,85.07,-0.10,5.02
20.178000,-62.3750,9,85.07,-0.10,5.02
20.188000,-59.8750,9,85.07,-0.10,5.02
20.198000,-67.0000,9,85.07,-0.10,5.02
20.208000,-66.5000,9,85.07,-0.10,5.02
20.218000,-73.1250,9,85.07,-0.10,5.02
20.228000,-76.2500,9,85.07,-0.10,5.02
20.238000,-73.6250,9,85.07,-0.10,5.02
20.248000,-73.3750,9,85.07,-0.10,5.02
20.258000,-76.2500,9,85.07,-0.10,5.02
20.268000,-75.0000,9,85.07,-0.10,5.02
20.278000,-73.5000,9,85.07,-0.10,5.02
20.288000,-71.1250,9,85.07,-0.10,5.02
20.298000,-72.7500,9,85.07,-0.10,5.02
20.308000,-78.2500,9,85.07,-0.10,5.02
20.318000,-71.6250,9,85.07,-0.10,5.02
20.328000,-77.1250,9,85.07,-0.10,5.02
20.338000,-80.0000,9,85.07,-0.10,5.02
20.348000,-77.7500,9,85.07,-0.10,5.02
20.358000,-84.1250,9,85.07,-0.10,5.02
20.368000,-78.7500,9,85.07,-0.10,5.02
20.378000,-75.6250,9,85.07,-0.10,5.02
20.388000,-75.7500,9,85.07,-0.10,5.02
20.398000,-86.0000,9,85.07,-0.10,5.02
20.408000,-81.3750,9,85.07,-0.10,5.02
20.418000,-89.2500,9,85.07,-0.10,5.02
20.428000,-95.7500,9,85.07,-0.10,5.02
20.438000,-101.0000,9,85.07,-0.10,5.02
20.448000,-105.7500,9,85.07,-0.10,5.02
20.458000,-99.6250,9,85.07,-0.10,5.02
20.468000,-107.7500,9,85.07,-0.10,5.02
20.478000,-97.2500,9,85.07,-0.10,5.02
20.488000,-92.5000,9,85.07,-0.10,5.02
20.498000,-86.1250,9,85.07,-0.10,5.02
20.508000,-88.6250,9,85.07,-0.10,5.02
20.518000,-89.8750,9,85.07,-0.10,5.02
20.528000,-107.6250,9,85.07,-0.10,5.02
20.538000,-113.0000,9,85.07,-0.10,5.02
20.548000,-118.6250,9,85.07,-0.10,5.02
20.558000,-115.5000,9,85.07,-0.10,5.02
20.568000,-118.3750,9,85.07,-0.10,5.02
20.578000,-114.5000,9,85.07,-0.10,5.02
20.588000,-115.3750,9,85.07,-0.10,5.02
20.598000,-113.2500,9,85.07,-0.10,5.02
20.608000,-107.8750,9,85.07,-0.10,5.02
20.618000,-98.8750,9,85.07,-0.10,5.02
20.628000,-105.6250,9,85.07,-0.10,5.02
20.638000,-115.5000,9,85.07,-0.10,5.02
20.648000,-117.0000,9,85.07,-0.10,5.02
20.658000,-96.7500,9,85.07,-0.10,5.02
20.668000,-83.0000,9,85.07,-0.10,5.02
20.678000,-65.7500,9,85.07,-0.10,5.02
20.688000,-61.0000,9,85.07,-0.10,5.02
20.698000,-60.1250,9,85.07,-0.10,5.02
20.708000,-68.5000,9,85.07,-0.10,5.02
20.718000,-60.8750,9,85.07,-0.10,5.02
20.728000,-63.7500,9,85.07,-0.10,5.02
20.738000,-71.0000,9,85.07,-0.10,5.02
20.748000,-72.8750,9,85.07,-0.10,5.02
20.758000,-41.1250,9,85.07,-0.10,5.02
20.768000,-36.6250,9,85.07,-0.10,5.02
20.778000,-24.1250,9,85.07,-0.10,5.02
20.788000,-35.1250,9,85.07,-0.10,5.02
20.798000,-32.1250,9,85.07,-0.10,5.02
20.808000,-37.1250,9,85.07,-0.10,5.02
20.818000,-32.8750,9,85.07,-0.10,5.02
20.828000,-25.5000,9,85.07,-0.10,5.02
20.838000,-35.3750,9,85.07,-0.10,5.02
20.848000,-21.8750,9,85.07,-0.10,5.02
20.858000,-30.5000,9,85.07,-0.10,5.02
20.868000,-34.3750,9,85.07,-0.10,5.02
20.878000,-41.7500,9,85.07,-0.10,5.02
20.888000,-37.5000,9,85.07,-0.10,5.02
20.898000,-38.8750,9,85.07,-0.10,5.02
20.908000,-41.1250,9,85.07,-0.10,5.02
20.918000,-39.5000,9,85.07,-0.10,5.02
20.928000,-40.1250,9,85.07,-0.10,5.02
20.938000,-35.2500,9,85.07,-0.10,5.02
20.948000,-37.1250,9,85.07,-0.10,5.02
20.958000,-28.7500,9,85.07,-0.10,5.02
20.968000,-41.2500,9,85.07,-0.10,5.02
20.978000,-50.5000,9,85.07,-0.10,5.02
20.988000,-51.6250,9,85.07,-0.10,5.02
20.998000,-56.1250,9,85.07,-0.10,5.02
21.008000,-58.2500,9,85.07,-0.10,5.02
21.018000,-57.1250,9,85.07,-0.10,5.02
21.028000,-54.3750,9,85.07,-0.10,5.02
21.038000,-60.6250,9,85.07,-0.10,5.02
21.048000,-73.5000,9,85.07,-0.10,5.02
21.058000,-74.2500,9,85.07,-0.10,5.02
21.068000,-76.3750,9,85.07,-0.10,5.02
21.078000,-78.7500,9,85.07,-0.10,5.02
21.088000,-79.3750,9,85.07,-0.10,5.02
21.098000,-81.1250,9,85.07,-0.10,5.02
21.108000,-80.7500,9,85.07,-0.10,5.02
21.118000,-83.0000,9,85.07,-0.10,5.02
21.128000,-84.6250,9,85.07,-0.10,5.02
21.138000,-91.2500,9,85.07,-0.10,5.02
21.148000,-89.1250,9,85.07,-0.10,5.02
21.158000,-92.2500,9,85.07,-0.10,5.02
21.168000,-85.8750,9,85.07,-0.10,5.02
21.178000,-79.2500,9,85.07,-0.10,5.02
21.188000,-96.6250,9,85.07,-0.10,5.02
21.198000,-87.5000,9,85.07,-0.10,5.02
21.208000,-85.0000,9,85.07,-0.10,5.02
21.218000,-79.7500,9,85.07,-0.10,5.02
21.228000,-83.2500,9,85.07,-0.10,5.02
21.238000,-89.7500,9,85.07,-0.10,5.02
21.248000,-94.1250,9,85.07,-0.10,5.02
21.258000,-92.2500,9,85.07,-0.10,5.02
21.268000,-84.8750,9,85.07,-0.10,5.02
21.278000,-86.0000,9,85.07,-0.10,5.02
21.288000,-84.5000,9,85.07,-0.10,5.02
21.298000,-89.2500,9,85.07,-0.10,5.02
21.308000,-97.7500,9,85.07,-0.10,5.02
21.318000,-100.0000,9,85.07,-0.10,5.02
21.328000,-100.5000,9,85.07,-0.10,5.02
21.338000,-103.2500,9,85.07,-0.10,5.02
21.348000,-100.2500,9,85.07,-0.10,5.02
21.358000,-102.7500,9,85.07,-0.10,5.02
21.368000,-99.2500,9,85.07,-0.10,5.02
21.378000,-99.3750,9,85.07,-0.10,5.02
21.388000,-101.5000,9,85.07,-0.10,5.02
21.398000,-96.8750,9,85.07,-0.10,5.02
21.408000,-101.5000,9,85.07,-0.10,5.02
21.418000,-96.7500,9,85.07,-0.10,5.02
21.428000,-94.8750,9,85.07,-0.10,5.02
21.438000,-95.2500,9,85.07,-0.10,5.02
21.448000,-92.2500,9,85.07,-0.10,5.02
21.458000,-72.2500,9,85.07,-0.10,5.02
21.468000,-79.0000,9,85.07,-0.10,5.02
21.478000,-85.0000,9,85.07,-0.10,5.02
21.488000,-86.3750,9,85.07,-0.10,5.02
21.498000,-86.8750,9,85.07,-0.10,5.02
21.508000,-88.7500,9,85.07,-0.10,5.02
21.518000,-85.7500,9,85.07,-0.10,5.02
21.528000,-76.5000,9,85.07,-0.10,5.02
21.538000,-89.1250,9,85.07,-0.10,5.02
21.548000,-97.5000,9,85.07,-0.10,5.02
21.558000,-95.5000,9,85.07,-0.10,5.02
21.568000,-94.6250,9,85.07,-0.10,5.02
21.578000,-92.6250,9,85.07,-0.10,5.02
21.588000,-98.3750,9,85.07,-0.10,5.02
21.598000,-92.5000,9,85.07,-0.10,5.02
21.608000,-96.7500,9,85.07,-0.10,5.02
21.618000,-88.5000,9,85.07,-0.10,5.02
21.628000,-94.5000,9,85.07,-0.10,5.02
21.638000,-93.7500,9,85.07,-0.10,5.02
21.648000,-97.8750,9,85.07,-0.10,5.02
21.658000,-94.5000,9,85.07,-0.10,5.02
21.668000,-97.8750,9,85.07,-0.10,5.02
21.678000,-94.8750,9,85.07,-0.10,5.02
21.688000,-107.5000,9,85.07,-0.10,5.02
21.698000,-142.0000,9,85.07,-0.10,5.02
21.708000,-176.0000,9,85.07,-0.10,5.02
21.718000,-199.7500,9,85.07,-0.10,5.02
21.728000,-198.5000,9,85.07,-0.10,5.02
21.738000,-186.3750,9,85.07,-0.10,5.02
21.748000,-189.5000,9,85.07,-0.10,5.02
21.758000,-178.3750,9,85.07,-0.10,5.02
21.768000,-164.3750,9,85.07,-0.10,5.02
21.778000,-158.7500,9,85.07,-0.10,5.02
21.788000,-157.3750,9,85.07,-0.10,5.02
21.798000,-152.1250,9,85.07,-0.10,5.02
21.808000,-145.8750,9,85.07,-0.10,5.02
21.818000,-142.2500,9,85.07,-0.10,5.02
21.828000,-130.7500,9,85.07,-0.10,5.02
21.838000,-122.6250,9,85.07,-0.10,5.02
21.848000,-139.1250,9,85.07,-0.10,5.02
21.858000,-132.8750,9,85.07,-0.10,5.02
21.868000,-149.2500,9,85.07,-0.10,5.02
21.878000,-138.3750,9,85.07,-0.10,5.02
21.888000,-139.1250,9,85.07,-0.10,5.02
21.898000,-140.3750,9,85.07,-0.10,5.02
21.908000,-137.6250,9,85.07,-0.10,5.02
21.918000,-135.2500,9,85.07,-0.10,5.02
21.928000,-132.8750,9,85.07,-0.10,5.02
21.938000,-133.0000,9,85.07,-0.10,5.02
21.948000,-134.1250,9,85.07,-0.10,5.02
21.958000,-133.7500,9,85.07,-0.10,5.02
21.968000,-128.2500,9,85.07,-0.10,5.02
21.978000,-121.0000,9,85.07,-0.10,5.02
21.988000,-118.8750,9,85.07,-0.10,5.02
21.998000,-129.1250,9,85.07,-0.10,5.02
22.008000,-133.5000,9,85.07,-0.10,5.02
22.018000,-99.7500,9,85.07,-0.10,5.02
22.028000,-139.8750,9,85.07,-0.10,5.02
22.038000,-151.7500,9,85.07,-0.10,5.02
22.048000,-133.7500,9,85.07,-0.10,5.02
22.058000,-136.2500,9,85.07,-0.10,5.02
22.068000,-139.1250,9,85.07,-0.10,5.02
22.078000,-119.0000,9,85.07,-0.10,5.02
22.088000,-115.6250,9,85.07,-0.10,5.02
22.098000,-117.8750,9,85.07,-0.10,5.02
22.108000,-122.0000,9,85.07,-0.10,5.02
22.118000,-116.5000,9,85.07,-0.10,5.02
22.128000,-118.7500,9,85.07,-0.10,5.02
22.138000,-116.2500,9,85.07,-0.10,5.02
22.148000,-115.8750,9,85.07,-0.10,5.02
22.158000,-114.1250,9,85.07,-0.10,5.02
22.168000,-119.2500,9,85.07,-0.10,5.02
22.178000,-111.1250,9,85.07,-0.10,5.02
22.188000,-108.1250,9,85.07,-0.10,5.02
22.198000,-110.7500,9,85.07,-0.10,5.02
22.208000,-103.0000,9,85.07,-0.10,5.02
22.218000,-97.1250,9,85.07,-0.10,5.02
22.228000,-82.2500,9,85.07,-0.10,5.02
22.238000,-73.7500,9,85.07,-0.10,5.02
22.248000,-69.1250,9,85.07,-0.10,5.02
22.258000,-66.5000,9,85.07,-0.10,5.02
22.268000,-59.3750,9,85.07,-0.10,5.02
22.278000,-56.2500,9,85.07,-0.10,5.02
22.288000,-54.2500,9,85.07,-0.10,5.02
22.298000,-53.5000,9,85.07,-0.10,5.02
22.308000,-52.0000,9,85.07,-0.10,5.02
22.318000,-50.2500,9,85.07,-0.10,5.02
22.328000,-51.2500,9,85.07,-0.10,5.02
22.338000,-46.2500,9,85.07,-0.10,5.02
22.348000,-42.6250,9,85.07,-0.10,5.02
22.358000,-45.5000,9,85.07,-0.10,5.02
22.368000,-55.2500,9,85.07,-0.10,5.02
22.378000,-58.3750,9,85.07,-0.10,5.02
22.388000,-45.3750,11,68.81,-0.11,10.22
22.398000,-50.1250,11,68.81,-0.11,10.22
22.408000,-47.7500,11,68.81,-0.11,10.22
22.418000,-49.5000,11,68.81,-0.11,10.22
22.428000,-46.7500,11,68.81,-0.11,10.22
22.438000,-49.5000,11,68.81,-0.11,10.22
22.448000,-47.2500,11,68.81,-0.11,10.22
22.458000,-49.3750,11,68.81,-0.11,10.22
22.468000,-50.5000,11,68.81,-0.11,10.22
22.478000,-48.0000,11,68.81,-0.11,10.22
22.488000,-51.1250,11,68.81,-0.11,10.22
22.498000,-49.6250,11,68.81,-0.11,10.22
22.508000,-50.2500,11,68.81,-0.11,10.22
22.518000,-46.5000,11,68.81,-0.11,10.22
22.528000,-49.6250,11,68.81,-0.11,10.22
22.538000,-49.7500,11,68.81,-0.11,10.22
22.548000,-49.0000,11,68.81,-0.11,10.22
22.558000,-50.3750,11,68.81,-0.11,10.22
22.568000,-50.6250,11,68.81,-0.11,10.22
22.578000,-56.0000,11,68.81,-0.11,10.22
22.588000,-59.5000,11,68.81,-0.11,10.22
22.598000,-61.1250,11,68.81,-0.11,10.22
22.608000,-62.5000,11,68.81,-0.11,10.22
22.618000,-63.2500,11,68.81,-0.11,10.22
22.628000,-66.1250,11,68.81,-0.11,10.22
22.638000,-63.6250,11,68.81,-0.11,10.22
22.648000,-65.6250,11,68.81,-0.11,10.22
22.658000,-64.3750,11,68.81,-0.11,10.22
22.668000,-65.7500,11,68.81,-0.11,10.22
22.678000,-63.1250,11,68.81,-0.11,10.22
22.688000,-65.0000,11,68.81,-0.11,10.22
22.698000,-64.5000,11,68.81,-0.11,10.22
22.708000,-68.0000,11,68.81,-0.11,10.22
22.718000,-65.8750,11,68.81,-0.11,10.22
22.728000,-68.7500,11,68.81,-0.11,10.22
22.738000,-66.1250,11,68.81,-0.11,10.22
22.748000,-66.1250,11,68.81,-0.11,10.22
22.758000,-65.5000,11,68.81,-0.11,10.22
22.768000,-68.1250,11,68.81,-0.11,10.22
22.778000,-65.7500,11,68.81,-0.11,10.22
22.788000,-69.7500,11,68.81,-0.11,10.22
22.798000,-65.0000,11,68.81,-0.11,10.22
22.808000,-63.8750,11,68.81,-0.11,10.22
22.818000,-58.3750,11,68.81,-0.11,10.22
22.828000,-65.7500,11,68.81,-0.11,10.22
22.838000,-65.0000,11,68.81,-0.11,10.22
22.848000,-66.1250,11,68.81,-0.11,10.22
22.858000,-65.1250,11,68.81,-0.11,10.22
22.868000,-68.1250,11,68.81,-0.11,10.22
22.878000,-65.5000,11,68.81,-0.11,10.22
22.888000,-70.0000,11,68.81,-0.11,10.22
22.898000,-67.1250,11,68.81,-0.11,10.22
22.908000,-70.5000,11,68.81,-0.11,10.22
22.918000,-66.7500,11,68.81,-0.11,10.22
22.928000,-69.1250,11,68.81,-0.11,10.22
22.938000,-66.7500,11,68.81,-0.11,10.22
22.948000,-70.6250,11,68.81,-0.11,10.22
22.958000,-68.3750,11,68.81,-0.11,10.22
22.968000,-71.1250,11,68.81,-0.11,10.22
22.978000,-68.7500,11,68.81,-0.11,10.22
22.988000,-71.7500,11,68.81,-0.11,10.22
22.998000,-67.7500,11,68.81,-0.11,10.22
23.008000,-70.7500,11,68.81,-0.11,10.22
23.018000,-68.5000,11,68.81,-0.11,10.22
23.028000,-72.0000,11,68.81,-0.11,10.22
23.038000,-70.7500,11,68.81,-0.11,10.22
23.048000,-72.0000,11,68.81,-0.11,10.22
23.058000,-71.1250,11,68.81,-0.11,10.22
23.068000,-72.7500,11,68.81,-0.11,10.22
23.078000,-72.2500,11,68.81,-0.11,10.22
23.088000,-73.7500,11,68.81,-0.11,10.22
23.098000,-73.3750,11,68.81,-0.11,10.22
23.108000,-74.7500,11,68.81,-0.11,10.22
23.118000,-71.8750,11,68.81,-0.11,10.22
23.128000,-74.6250,11,68.81,-0.11,10.22
23.138000,-69.8750,11,68.81,-0.11,10.22
23.148000,-63.2500,11,68.81,-0.11,10.22
23.158000,-60.3750,11,68.81,-0.11,10.22
23.168000,-72.0000,11,68.81,-0.11,10.22
23.178000,-82.5000,11,68.81,-0.11,10.22
23.188000,-73.2500,11,68.81,-0.11,10.22
23.198000,-65.6250,11,68.81,-0.11,10.22
23.208000,-67.7500,11,68.81,-0.11,10.22
23.218000,-65.5000,11,68.81,-0.11,10.22
23.228000,-61.8750,11,68.81,-0.11,10.22
23.238000,-64.3750,11,68.81,-0.11,10.22
23.248000,-63.1250,11,68.81,-0.11,10.22
23.258000,-64.0000,11,68.81,-0.11,10.22
23.268000,-63.7500,11,68.81,-0.11,10.22
23.278000,-59.8750,11,68.81,-0.11,10.22
23.288000,-62.0000,11,68.81,-0.11,10.22
23.298000,-56.8750,11,68.81,-0.11,10.22
23.308000,-61.0000,11,68.81,-0.11,10.22
23.318000,-56.7500,11,68.81,-0.11,10.22
23.328000,-59.7500,11,68.81,-0.11,10.22
23.338000,-57.5000,11,68.81,-0.11,10.22
23.348000,-59.0000,11,68.81,-0.11,10.22
23.358000,-55.0000,11,68.81,-0.11,10.22
23.368000,-59.8750,11,68.81,-0.11,10.22
23.378000,-64.3750,11,68.81,-0.11,10.22
23.388000,-62.3750,11,68.81,-0.11,10.22
23.398000,-67.8750,11,68.81,-0.11,10.22
23.408000,-68.5000,11,68.81,-0.11,10.22
23.418000,-74.6250,11,68.81,-0.11,10.22
23.428000,-76.5000,11,68.81,-0.11,10.22
23.438000,-77.6250,11,68.81,-0.11,10.22
23.448000,-78.2500,11,68.81,-0.11,10.22
23.458000,-77.2500,11,68.81,-0.11,10.22
23.468000,-77.3750,11,68.81,-0.11,10.22
23.478000,-79.3750,11,68.81,-0.11,10.22
23.488000,-78.6250,11,68.81,-0.11,10.22
23.498000,-80.6250,11,68.81,-0.11,10.22
23.508000,-77.2500,11,68.81,-0.11,10.22
23.518000,-78.7500,11,68.81,-0.11,10.22
23.528000,-76.0000,11,68.81,-0.11,10.22
23.538000,-78.6250,11,68.81,-0.11,10.22
23.548000,-78.8750,11,68.81,-0.11,10.22
23.558000,-79.5000,11,68.81,-0.11,10.22
23.568000,-78.0000,11,68.81,-0.11,10.22
23.578000,-79.6250,11,68.81,-0.11,10.22
23.588000,-77.2500,11,68.81,-0.11,10.22
23.598000,-75.5000,11,68.81,-0.11,10.22
23.608000,-72.8750,11,68.81,-0.11,10.22
23.618000,-74.1250,11,68.81,-0.11,10.22
23.628000,-72.1250,11,68.81,-0.11,10.22
23.638000,-75.7500,11,68.81,-0.11,10.22
23.648000,-73.1250,11,68.81,-0.11,10.22
23.658000,-76.2500,11,68.81,-0.11,10.22
23.668000,-73.8750,11,68.81,-0.11,10.22
23.678000,-78.0000,11,68.81,-0.11,10.22
23.688000,-75.2500,11,68.81,-0.11,10.22
23.698000,-77.6250,11,68.81,-0.11,10.22
23.708000,-75.2500,11,68.81,-0.11,10.22
23.718000,-78.6250,11,68.81,-0.11,10.22
23.728000,-75.3750,11,68.81,-0.11,10.22
23.738000,-77.0000,11,68.81,-0.11,10.22
23.748000,-76.6250,11,68.81,-0.11,10.22
23.758000,-78.0000,11,68.81,-0.11,10.22
23.768000,-74.7500,11,68.81,-0.11,10.22
23.778000,-77.6250,11,68.81,-0.11,10.22
23.788000,-73.7500,11,68.81,-0.11,10.22
23.798000,-69.6250,11,68.81,-0.11,10.22
23.808000,-62.6250,11,68.81,-0.11,10.22
23.818000,-62.5000,11,68.81,-0.11,10.22
23.828000,-59.3750,11,68.81,-0.11,10.22
23.838000,-60.7500,11,68.81,-0.11,10.22
23.848000,-57.3750,11,68.81,-0.11,10.22
23.858000,-58.6250,11,68.81,-0.11,10.22
23.868000,-55.1250,11,68.81,-0.11,10.22
23.878000,-55.7500,11,68.81,-0.11,10.22
23.888000,-52.1250,11,68.81,-0.11,10.22
23.898000,-52.6250,11,68.81,-0.11,10.22
23.908000,-50.3750,11,68.81,-0.11,10.22
23.918000,-51.3750,11,68.81,-0.11,10.22
23.928000,-44.7500,11,68.81,-0.11,10.22
23.938000,-39.2500,11,68.81,-0.11,10.22
23.948000,-36.5000,11,68.81,-0.11,10.22
23.958000,-46.1250,11,68.81,-0.11,10.22
23.968000,-57.2500,11,68.81,-0.11,10.22
23.978000,-50.1250,11,68.81,-0.11,10.22
23.988000,-45.5000,11,68.81,-0.11,10.22
23.998000,-49.5000,11,68.81,-0.11,10.22
24.008000,-50.1250,11,68.81,-0.11,10.22
24.018000,-52.2500,11,68.81,-0.11,10.22
24.028000,-51.5000,11,68.81,-0.11,10.22
24.038000,-56.5000,11,68.81,-0.11,10.22
24.048000,-55.2500,11,68.81,-0.11,10.22
24.058000,-62.0000,11,68.81,-0.11,10.22
24.068000,-63.6250,11,68.81,-0.11,10.22
24.078000,-70.6250,11,68.81,-0.11,10.22
24.088000,-68.8750,11,68.81,-0.11,10.22
24.098000,-67.8750,11,68.81,-0.11,10.22
24.108000,-71.5000,11,68.81,-0.11,10.22
24.118000,-67.0000,11,68.81,-0.11,10.22
24.128000,-69.7500,11,68.81,-0.11,10.22
24.138000,-65.7500,11,68.81,-0.11,10.22
24.148000,-73.6250,11,68.81,-0.11,10.22
24.158000,-77.7500,11,68.81,-0.11,10.22
24.168000,-77.8750,11,68.81,-0.11,10.22
24.178000,-84.5000,11,68.81,-0.11,10.22
24.188000,-85.2500,11,68.81,-0.11,10.22
24.198000,-83.1250,11,68.81,-0.11,10.22
24.208000,-74.8750,11,68.81,-0.11,10.22
24.218000,-41.7500,11,68.81,-0.11,10.22
24.228000,-37.2500,11,68.81,-0.11,10.22
24.238000,-33.5000,11,68.81,-0.11,10.22
24.248000,-38.0000,11,68.81,-0.11,10.22
24.258000,-31.5000,11,68.81,-0.11,10.22
24.268000,-38.6250,11,68.81,-0.11,10.22
24.278000,-41.7500,11,68.81,-0.11,10.22
24.288000,-41.8750,11,68.81,-0.11,10.22
24.298000,-42.7500,11,68.81,-0.11,10.22
24.308000,-42.8750,11,68.81,-0.11,10.22
24.318000,-46.5000,11,68.81,-0.11,10.22
24.328000,-45.6250,11,68.81,-0.11,10.22
24.338000,-46.3750,11,68.81,-0.11,10.22
24.348000,-47.5000,11,68.81,-0.11,10.22
24.358000,-55.0000,11,68.81,-0.11,10.22
24.368000,-48.7500,11,68.81,-0.11,10.22
24.378000,-51.7500,11,68.81,-0.11,10.22
24.388000,-42.2500,11,68.81,-0.11,10.22
24.398000,-46.7500,11,68.81,-0.11,10.22
24.408000,-52.3750,11,68.81,-0.11,10.22
24.418000,-65.1250,11,68.81,-0.11,10.22
24.428000,-66.6250,11,68.81,-0.11,10.22
24.438000,-66.7500,11,68.81,-0.11,10.22
24.448000,-71.1250,11,68.81,-0.11,10.22
24.458000,-71.0000,11,68.81,-0.11,10.22
24.468000,-73.5000,11,68.81,-0.11,10.22
24.478000,-67.8750,11,68.81,-0.11,10.22
24.488000,-75.0000,11,68.81,-0.11,10.22
24.498000,-72.5000,11,68.81,-0.11,10.22
24.508000,-73.1250,11,68.81,-0.11,10.22
24.518000,-68.2500,11,68.81,-0.11,10.22
24.528000,-65.0000,11,68.81,-0.11,10.22
24.538000,-68.7500,11,68.81,-0.11,10.22
24.548000,-67.2500,11,68.81,-0.11,10.22
24.558000,-70.0000,11,68.81,-0.11,10.22
24.568000,-69.0000,11,68.81,-0.11,10.22
24.578000,-69.0000,11,68.81,-0.11,10.22
24.588000,-70.1250,11,68.81,-0.11,10.22
24.598000,-70.1250,11,68.81,-0.11,10.22
24.608000,-76.5000,11,68.81,-0.11,10.22
24.618000,-77.6250,11,68.81,-0.11,10.22
24.628000,-66.6250,11,68.81,-0.11,10.22
24.638000,-69.1250,11,68.81,-0.11,10.22
24.648000,-65.2500,11,68.81,-0.11,10.22
24.658000,-79.0000,11,68.81,-0.11,10.22
24.668000,-83.2500,11,68.81,-0.11,10.22
24.678000,-86.5000,11,68.81,-0.11,10.22
24.688000,-86.7500,11,68.81,-0.11,10.22
24.698000,-88.2500,11,68.81,-0.11,10.22
24.708000,-88.5000,11,68.81,-0.11,10.22
24.718000,-80.6250,11,68.81,-0.11,10.22
24.728000,-87.0000,11,68.81,-0.11,10.22
24.738000,-82.8750,11,68.81,-0.11,10.22
24.748000,-87.7500,11,68.81,-0.11,10.22
24.758000,-81.2500,11,68.81,-0.11,10.22
24.768000,-81.6250,11,68.81,-0.11,10.22
24.778000,-88.5000,11,68.81,-0.11,10.22
24.788000,-85.8750,11,68.81,-0.11,10.22
24.798000,-83.3750,11,68.81,-0.11,10.22
24.808000,-96.6250,11,68.81,-0.11,10.22
24.818000,-92.8750,11,68.81,-0.11,10.22
24.828000,-99.2500,11,68.81,-0.11,10.22
24.838000,-98.7500,11,68.81,-0.11,10.22
24.848000,-99.0000,11,68.81,-0.11,10.22
24.858000,-89.7500,11,68.81,-0.11,10.22
24.868000,-96.1250,11,68.81,-0.11,10.22
24.878000,-95.0000,11,68.81,-0.11,10.22
24.888000,-95.1250,11,68.81,-0.11,10.22
24.898000,-99.1250,11,68.81,-0.11,10.22
24.908000,-95.2500,11,68.81,-0.11,10.22
24.918000,-88.8750,11,68.81,-0.11,10.22
24.928000,-93.6250,11,68.81,-0.11,10.22
24.938000,-100.1250,11,68.81,-0.11,10.22
24.948000,-100.3750,11,68.81,-0.11,10.22
24.958000,-97.0000,11,68.81,-0.11,10.22
24.968000,-97.3750,11,68.81,-0.11,10.22
24.978000,-94.3750,11,68.81,-0.11,10.22
24.988000,-89.2500,11,68.81,-0.11,10.22
24.998000,-87.1250,11,68.81,-0.11,10.22
25.008000,-91.8750,11,68.81,-0.11,10.22
25.018000,-106.0000,11,68.81,-0.11,10.22
25.028000,-85.8750,11,68.81,-0.11,10.22
25.038000,-91.1250,11,68.81,-0.11,10.22
25.048000,-91.2500,11,68.81,-0.11,10.22
25.058000,-90.7500,11,68.81,-0.11,10.22
25.068000,-88.8750,11,68.81,-0.11,10.22
25.078000,-84.8750,11,68.81,-0.11,10.22
25.088000,-83.3750,11,68.81,-0.11,10.22
25.098000,-79.6250,11,68.81,-0.11,10.22
25.108000,-88.6250,11,68.81,-0.11,10.22
25.118000,-96.6250,11,68.81,-0.11,10.22
25.128000,-95.5000,11,68.81,-0.11,10.22
25.138000,-94.7500,11,68.81,-0.11,10.22
25.148000,-86.2500,11,68.81,-0.11,10.22
25.158000,-94.7500,11,68.81,-0.11,10.22
25.168000,-91.5000,11,68.81,-0.11,10.22
25.178000,-95.6250,11,68.81,-0.11,10.22
25.188000,-93.6250,11,68.81,-0.11,10.22
25.198000,-93.6250,11,68.81,-0.11,10.22
25.208000,-94.0000,11,68.81,-0.11,10.22
25.218000,-91.0000,11,68.81,-0.11,10.22
25.228000,-93.0000,11,68.81,-0.11,10.22
25.238000,-91.6250,11,68.81,-0.11,10.22
25.248000,-90.6250,11,68.81,-0.11,10.22
25.258000,-89.6250,11,68.81,-0.11,10.22
25.268000,-91.2500,11,68.81,-0.11,10.22
25.278000,-89.1250,11,68.81,-0.11,10.22
25.288000,-106.3750,11,68.81,-0.11,10.22
25.298000,-87.3750,11,68.81,-0.11,10.22
25.308000,-93.8750,11,68.81,-0.11,10.22
25.318000,-95.0000,11,68.81,-0.11,10.22
25.328000,-89.0000,11,68.81,-0.11,10.22
25.338000,-86.6250,11,68.81,-0.11,10.22
25.348000,-88.7500,11,68.81,-0.11,10.22
25.358000,-87.7500,11,68.81,-0.11,10.22
25.368000,-83.6250,11,68.81,-0.11,10.22
25.378000,-80.3750,11,68.81,-0.11,10.22
25.388000,-92.7500,11,68.81,-0.11,10.22
25.398000,-93.0000,11,68.81,-0.11,10.22
25.408000,-95.8750,11,68.81,-0.11,10.22
25.418000,-95.6250,11,68.81,-0.11,10.22
25.428000,-84.5000,11,68.81,-0.11,10.22
25.438000,-84.5000,11,68.81,-0.11,10.22
25.448000,-88.2500,11,68.81,-0.11,10.22
25.458000,-92.8750,11,68.81,-0.11,10.22
25.468000,-93.3750,11,68.81,-0.11,10.22
25.478000,-94.5000,11,68.81,-0.11,10.22
25.488000,-94.1250,11,68.81,-0.11,10.22
25.498000,-89.1250,11,68.81,-0.11,10.22
25.508000,-87.2500,11,68.81,-0.11,10.22
25.518000,-91.2500,11,68.81,-0.11,10.22
25.528000,-87.2500,11,68.81,-0.11,10.22
25.538000,-90.5000,11,68.81,-0.11,10.22
25.548000,-93.1250,11,68.81,-0.11,10.22
25.558000,-90.7500,11,68.81,-0.11,10.22
25.568000,-83.2500,11,68.81,-0.11,10.22
25.578000,-93.1250,11,68.81,-0.11,10.22
25.588000,-91.1250,11,68.81,-0.11,10.22
25.598000,-89.5000,11,68.81,-0.11,10.22
25.608000,-80.8750,11,68.81,-0.11,10.22
25.618000,-91.7500,11,68.81,-0.11,10.22
25.628000,-86.3750,11,68.81,-0.11,10.22
25.638000,-90.5000,11,68.81,-0.11,10.22
25.648000,-90.7500,11,68.81,-0.11,10.22
25.658000,-91.1250,11,68.81,-0.11,10.22
25.668000,-92.5000,11,68.81,-0.11,10.22
25.678000,-88.8750,11,68.81,-0.11,10.22
25.688000,-92.1250,11,68.81,-0.11,10.22
25.698000,-89.2500,11,68.81,-0.11,10.22
25.708000,-91.8750,11,68.81,-0.11,10.22
25.718000,-94.2500,11,68.81,-0.11,10.22
25.728000,-91.0000,11,68.81,-0.11,10.22
25.738000,-93.1250,11,68.81,-0.11,10.22
25.748000,-87.3750,11,68.81,-0.11,10.22
25.758000,-93.2500,11,68.81,-0.11,10.22
25.768000,-88.6250,11,68.81,-0.11,10.22
25.778000,-83.8750,11,68.81,-0.11,10.22
25.788000,-84.6250,11,68.81,-0.11,10.22
25.798000,-92.0000,11,68.81,-0.11,10.22
25.808000,-88.8750,11,68.81,-0.11,10.22
25.818000,-92.3750,11,68.81,-0.11,10.22
25.828000,-89.0000,11,68.81,-0.11,10.22
25.838000,-92.6250,11,68.81,-0.11,10.22
25.848000,-88.2500,11,68.81,-0.11,10.22
25.858000,-91.1250,11,68.81,-0.11,10.22
25.868000,-85.7500,11,68.81,-0.11,10.22
25.878000,-82.0000,11,68.81,-0.11,10.22
25.888000,-83.0000,11,68.81,-0.11,10.22
25.898000,-87.1250,11,68.81,-0.11,10.22
25.908000,-89.2500,11,68.81,-0.11,10.22
25.918000,-92.7500,11,68.81,-0.11,10.22
25.928000,-91.6250,11,68.81,-0.11,10.22
25.938000,-89.2500,11,68.81,-0.11,10.22
25.948000,-92.3750,11,68.81,-0.11,10.22
25.958000,-88.7500,11,68.81,-0.11,10.22
25.968000,-93.2500,11,68.81,-0.11,10.22
25.978000,-91.0000,11,68.81,-0.11,10.22
25.988000,-92.8750,11,68.81,-0.11,10.22
25.998000,-88.7500,11,68.81,-0.11,10.22
26.008000,-87.6250,11,68.81,-0.11,10.22
26.018000,-79.3750,11,68.81,-0.11,10.22
26.028000,-84.5000,11,68.81,-0.11,10.22
26.038000,-94.3750,11,68.81,-0.11,10.22
26.048000,-98.8750,11,68.81,-0.11,10.22
26.058000,-86.7500,11,68.81,-0.11,10.22
26.068000,-84.6250,11,68.81,-0.11,10.22
26.078000,-86.3750,11,68.81,-0.11,10.22
26.088000,-84.2500,11,68.81,-0.11,10.22
26.098000,-79.0000,11,68.81,-0.11,10.22
26.108000,-74.7500,11,68.81,-0.11,10.22
26.118000,-78.2500,11,68.81,-0.11,10.22
26.128000,-81.0000,11,68.81,-0.11,10.22
26.138000,-77.2500,11,68.81,-0.11,10.22
26.148000,-78.2500,11,68.81,-0.11,10.22
26.158000,-77.6250,11,68.81,-0.11,10.22
26.168000,-75.1250,11,68.81,-0.11,10.22
26.178000,-74.5000,11,68.81,-0.11,10.22
26.188000,-73.0000,11,68.81,-0.11,10.22
26.198000,-73.6250,11,68.81,-0.11,10.22
26.208000,-77.3750,11,68.81,-0.11,10.22
26.218000,-76.8750,11,68.81,-0.11,10.22
26.228000,-81.1250,13,72.64,2.52,9.31
26.238000,-81.7500,13,72.64,2.52,9.31
26.248000,-83.0000,13,72.64,2.52,9.31
26.258000,-84.0000,13,72.64,2.52,9.31
26.268000,-86.8750,13,72.64,2.52,9.31
26.278000,-85.5000,13,72.64,2.52,9.31
26.288000,-86.2500,13,72.64,2.52,9.31
26.298000,-85.1250,13,72.64,2.52,9.31
26.308000,-86.6250,13,72.64,2.52,9.31
26.318000,-84.1250,13,72.64,2.52,9.31
26.328000,-86.0000,13,72.64,2.52,9.31
26.338000,-85.1250,13,72.64,2.52,9.31
26.348000,-88.1250,13,72.64,2.52,9.31
26.358000,-84.8750,13,72.64,2.52,9.31
26.368000,-87.7500,13,72.64,2.52,9.31
26.378000,-83.6250,13,72.64,2.52,9.31
26.388000,-86.8750,13,72.64,2.52,9.31
26.398000,-84.6250,13,72.64,2.52,9.31
26.408000,-87.8750,13,72.64,2.52,9.31
26.418000,-83.5000,13,72.64,2.52,9.31
26.428000,-87.0000,13,72.64,2.52,9.31
26.438000,-84.1250,13,72.64,2.52,9.31
26.448000,-87.1250,13,72.64,2.52,9.31
26.458000,-85.5000,13,72.64,2.52,9.31
26.468000,-88.1250,13,72.64,2.52,9.31
26.478000,-86.5000,13,72.64,2.52,9.31
26.488000,-89.0000,13,72.64,2.52,9.31
26.498000,-85.8750,13,72.64,2.52,9.31
26.508000,-88.7500,13,72.64,2.52,9.31
26.518000,-86.6250,13,72.64,2.52,9.31
26.528000,-90.0000,13,72.64,2.52,9.31
26.538000,-87.3750,13,72.64,2.52,9.31
26.548000,-90.1250,13,72.64,2.52,9.31
26.558000,-86.8750,13,72.64,2.52,9.31
26.568000,-89.8750,13,72.64,2.52,9.31
26.578000,-87.0000,13,72.64,2.52,9.31
26.588000,-90.0000,13,72.64,2.52,9.31
26.598000,-88.3750,13,72.64,2.52,9.31
26.608000,-90.8750,13,72.64,2.52,9.31
26.618000,-87.6250,13,72.64,2.52,9.31
26.628000,-89.7500,13,72.64,2.52,9.31
26.638000,-88.3750,13,72.64,2.52,9.31
26.648000,-90.1250,13,72.64,2.52,9.31
26.658000,-88.5000,13,72.64,2.52,9.31
26.668000,-89.7500,13,72.64,2.52,9.31
26.678000,-89.2500,13,72.64,2.52,9.31
26.688000,-88.7500,13,72.64,2.52,9.31
26.698000,-89.1250,13,72.64,2.52,9.31
26.708000,-89.6250,13,72.64,2.52,9.31
26.718000,-88.5000,13,72.64,2.52,9.31
26.728000,-89.6250,13,72.64,2.52,9.31
26.738000,-88.6250,13,72.64,2.52,9.31
26.748000,-89.3750,13,72.64,2.52,9.31
26.758000,-89.6250,13,72.64,2.52,9.31
26.768000,-89.8750,13,72.64,2.52,9.31
26.778000,-86.1250,13,72.64,2.52,9.31
26.788000,-90.1250,13,72.64,2.52,9.31
26.798000,-86.1250,13,72.64,2.52,9.31
26.808000,-92.2500,13,72.64,2.52,9.31
26.818000,-84.3750,13,72.64,2.52,9.31
26.828000,-81.8750,13,72.64,2.52,9.31
26.838000,-83.3750,13,72.64,2.52,9.31
26.848000,-71.5000,13,72.64,2.52,9.31
26.858000,-77.6250,13,72.64,2.52,9.31
26.868000,-89.3750,13,72.64,2.52,9.31
26.878000,-98.2500,13,72.64,2.52,9.31
26.888000,-83.6250,13,72.64,2.52,9.31
26.898000,-82.2500,13,72.64,2.52,9.31
26.908000,-83.1250,13,72.64,2.52,9.31
26.918000,-82.6250,13,72.64,2.52,9.31
26.928000,-83.6250,13,72.64,2.52,9.31
26.938000,-81.5000,13,72.64,2.52,9.31
26.948000,-85.8750,13,72.64,2.52,9.31
26.958000,-82.0000,13,72.64,2.52,9.31
26.968000,-86.3750,13,72.64,2.52,9.31
26.978000,-80.5000,13,72.64,2.52,9.31
26.988000,-85.8750,13,72.64,2.52,9.31
26.998000,-85.7500,13,72.64,2.52,9.31
27.008000,-82.7500,13,72.64,2.52,9.31
27.018000,-82.3750,13,72.64,2.52,9.31
27.028000,-80.5000,13,72.64,2.52,9.31
27.038000,-82.2500,13,72.64,2.52,9.31
27.048000,-80.1250,13,72.64,2.52,9.31
27.058000,-79.5000,13,72.64,2.52,9.31
27.068000,-79.8750,13,72.64,2.52,9.31
27.078000,-82.1250,13,72.64,2.52,9.31
27.088000,-84.6250,13,72.64,2.52,9.31
27.098000,-89.6250,13,72.64,2.52,9.31
27.108000,-89.5000,13,72.64,2.52,9.31
27.118000,-94.0000,13,72.64,2.52,9.31
27.128000,-90.8750,13,72.64,2.52,9.31
27.138000,-92.5000,13,72.64,2.52,9.31
27.148000,-92.2500,13,72.64,2.52,9.31
27.158000,-94.0000,13,72.64,2.52,9.31
27.168000,-91.5000,13,72.64,2.52,9.31
27.178000,-95.3750,13,72.64,2.52,9.31
27.188000,-92.1250,13,72.64,2.52,9.31
27.198000,-94.0000,13,72.64,2.52,9.31
27.208000,-91.2500,13,72.64,2.52,9.31
27.218000,-93.0000,13,72.64,2.52,9.31
27.228000,-90.6250,13,72.64,2.52,9.31
27.238000,-94.2500,13,72.64,2.52,9.31
27.248000,-90.0000,13,72.64,2.52,9.31
27.258000,-93.7500,13,72.64,2.52,9.31
27.268000,-92.5000,13,72.64,2.52,9.31
27.278000,-93.8750,13,72.64,2.52,9.31
27.288000,-90.3750,13,72.64,2.52,9.31
27.298000,-93.8750,13,72.64,2.52,9.31
27.308000,-90.8750,13,72.64,2.52,9.31
27.318000,-94.6250,13,72.64,2.52,9.31
27.328000,-91.0000,13,72.64,2.52,9.31
27.338000,-95.1250,13,72.64,2.52,9.31
27.348000,-90.8750,13,72.64,2.52,9.31
27.358000,-95.1250,13,72.64,2.52,9.31
27.368000,-92.6250,13,72.64,2.52,9.31
27.378000,-94.6250,13,72.64,2.52,9.31
27.388000,-92.3750,13,72.64,2.52,9.31
27.398000,-93.1250,13,72.64,2.52,9.31
27.408000,-93.1250,13,72.64,2.52,9.31
27.418000,-95.8750,13,72.64,2.52,9.31
27.428000,-92.3750,13,72.64,2.52,9.31
27.438000,-95.1250,13,72.64,2.52,9.31
27.448000,-93.8750,13,72.64,2.52,9.31
27.458000,-95.5000,13,72.64,2.52,9.31
27.468000,-92.2500,13,72.64,2.52,9.31
27.478000,-95.2500,13,72.64,2.52,9.31
27.488000,-93.7500,13,72.64,2.52,9.31
27.498000,-94.7500,13,72.64,2.52,9.31
27.508000,-94.0000,13,72.64,2.52,9.31
27.518000,-95.0000,13,72.64,2.52,9.31
27.528000,-93.3750,13,72.64,2.52,9.31
27.538000,-95.2500,13,72.64,2.52,9.31
27.548000,-92.1250,13,72.64,2.52,9.31
27.558000,-94.8750,13,72.64,2.52,9.31
27.568000,-91.7500,13,72.64,2.52,9.31
27.578000,-94.7500,13,72.64,2.52,9.31
27.588000,-94.5000,13,72.64,2.52,9.31
27.598000,-96.1250,13,72.64,2.52,9.31
27.608000,-93.7500,13,72.64,2.52,9.31
27.618000,-97.1250,13,72.64,2.52,9.31
27.628000,-94.1250,13,72.64,2.52,9.31
27.638000,-94.3750,13,72.64,2.52,9.31
27.648000,-95.1250,13,72.64,2.52,9.31
27.658000,-96.5000,13,72.64,2.52,9.31
27.668000,-95.3750,13,72.64,2.52,9.31
27.678000,-96.7500,13,72.64,2.52,9.31
27.688000,-88.1250,13,72.64,2.52,9.31
27.698000,-90.3750,13,72.64,2.52,9.31
27.708000,-80.1250,13,72.64,2.52,9.31
27.718000,-88.6250,13,72.64,2.52,9.31
27.728000,-95.6250,13,72.64,2.52,9.31
27.738000,-90.5000,13,72.64,2.52,9.31
27.748000,-87.6250,13,72.64,2.52,9.31
27.758000,-83.6250,13,72.64,2.52,9.31
27.768000,-91.0000,13,72.64,2.52,9.31
27.778000,-87.3750,13,72.64,2.52,9.31
27.788000,-89.5000,13,72.64,2.52,9.31
27.798000,-86.6250,13,72.64,2.52,9.31
27.808000,-90.1250,13,72.64,2.52,9.31
27.818000,-87.0000,13,72.64,2.52,9.31
27.828000,-87.7500,13,72.64,2.52,9.31
27.838000,-85.0000,13,72.64,2.52,9.31
27.848000,-85.0000,13,72.64,2.52,9.31
27.858000,-89.3750,13,72.64,2.52,9.31
27.868000,-84.7500,13,72.64,2.52,9.31
27.878000,-85.5000,13,72.64,2.52,9.31
27.888000,-82.0000,13,72.64,2.52,9.31
27.898000,-83.3750,13,72.64,2.52,9.31
27.908000,-85.0000,13,72.64,2.52,9.31
27.918000,-83.1250,13,72.64,2.52,9.31
27.928000,-85.7500,13,72.64,2.52,9.31
27.938000,-85.0000,13,72.64,2.52,9.31
27.948000,-87.6250,13,72.64,2.52,9.31
27.958000,-89.6250,13,72.64,2.52,9.31
27.968000,-91.8750,13,72.64,2.52,9.31
27.978000,-93.3750,13,72.64,2.52,9.31
27.988000,-91.7500,13,72.64,2.52,9.31
27.998000,-92.5000,13,72.64,2.52,9.31
28.008000,-95.5000,13,72.64,2.52,9.31
28.018000,-93.2500,13,72.64,2.52,9.31
28.028000,-85.7500,13,72.64,2.52,9.31
28.038000,-94.5000,13,72.64,2.52,9.31
28.048000,-85.8750,13,72.64,2.52,9.31
28.058000,-90.8750,13,72.64,2.52,9.31
28.068000,-85.1250,13,72.64,2.52,9.31
28.078000,-91.3750,13,72.64,2.52,9.31
28.088000,-91.0000,13,72.64,2.52,9.31
28.098000,-82.2500,13,72.64,2.52,9.31
28.108000,-81.5000,13,72.64,2.52,9.31
28.118000,-81.3750,13,72.64,2.52,9.31
28.128000,-79.0000,13,72.64,2.52,9.31
28.138000,-83.1250,13,72.64,2.52,9.31
28.148000,-85.8750,13,72.64,2.52,9.31
28.158000,-89.0000,13,72.64,2.52,9.31
28.168000,-87.5000,13,72.64,2.52,9.31
28.178000,-86.7500,13,72.64,2.52,9.31
28.188000,-80.5000,13,72.64,2.52,9.31
28.198000,-74.2500,13,72.64,2.52,9.31
28.208000,-81.2500,13,72.64,2.52,9.31
28.218000,-92.2500,13,72.64,2.52,9.31
28.228000,-84.1250,13,72.64,2.52,9.31
28.238000,-83.7500,13,72.64,2.52,9.31
28.248000,-83.1250,13,72.64,2.52,9.31
28.258000,-81.5000,13,72.64,2.52,9.31
28.268000,-80.2500,13,72.64,2.52,9.31
28.278000,-78.3750,13,72.64,2.52,9.31
28.288000,-80.6250,13,72.64,2.52,9.31
28.298000,-88.0000,13,72.64,2.52,9.31
28.308000,-90.0000,13,72.64,2.52,9.31
28.318000,-89.8750,13,72.64,2.52,9.31
28.328000,-88.1250,13,72.64,2.52,9.31
28.338000,-86.5000,13,72.64,2.52,9.31
28.348000,-87.6250,13,72.64,2.52,9.31
28.358000,-86.3750,13,72.64,2.52,9.31
28.368000,-89.6250,13,72.64,2.52,9.31
28.378000,-85.7500,13,72.64,2.52,9.31
28.388000,-83.3750,13,72.64,2.52,9.31
28.398000,-79.2500,13,72.64,2.52,9.31
28.408000,-86.3750,13,72.64,2.52,9.31
28.418000,-80.6250,13,72.64,2.52,9.31
28.428000,-81.3750,13,72.64,2.52,9.31
28.438000,-81.0000,13,72.64,2.52,9.31
28.448000,-83.0000,13,72.64,2.52,9.31
28.458000,-80.3750,13,72.64,2.52,9.31
28.468000,-82.6250,13,72.64,2.52,9.31
28.478000,-86.1250,13,72.64,2.52,9.31
28.488000,-78.3750,13,72.64,2.52,9.31
28.498000,-81.0000,13,72.64,2.52,9.31
28.508000,-88.8750,13,72.64,2.52,9.31
28.518000,-87.2500,13,72.64,2.52,9.31
28.528000,-84.2500,13,72.64,2.52,9.31
28.538000,-78.8750,13,72.64,2.52,9.31
28.548000,-81.1250,13,72.64,2.52,9.31
28.558000,-83.3750,13,72.64,2.52,9.31
28.568000,-91.8750,13,72.64,2.52,9.31
28.578000,-92.3750,13,72.64,2.52,9.31
28.588000,-93.3750,13,72.64,2.52,9.31
28.598000,-92.6250,13,72.64,2.52,9.31
28.608000,-94.6250,13,72.64,2.52,9.31
28.618000,-89.7500,13,72.64,2.52,9.31
28.628000,-94.7500,13,72.64,2.52,9.31
28.638000,-91.0000,13,72.64,2.52,9.31
28.648000,-85.8750,13,72.64,2.52,9.31
28.658000,-93.6250,13,72.64,2.52,9.31
28.668000,-92.8750,13,72.64,2.52,9.31
28.678000,-83.0000,13,72.64,2.52,9.31
28.688000,-91.0000,13,72.64,2.52,9.31
28.698000,-79.8750,13,72.64,2.52,9.31
28.708000,-72.6250,13,72.64,2.52,9.31
28.718000,-84.2500,13,72.64,2.52,9.31
28.728000,-91.3750,13,72.64,2.52,9.31
28.738000,-84.7500,13,72.64,2.52,9.31
28.748000,-76.7500,13,72.64,2.52,9.31
28.758000,-81.3750,13,72.64,2.52,9.31
28.768000,-81.8750,13,72.64,2.52,9.31
28.778000,-80.0000,13,72.64,2.52,9.31
28.788000,-72.8750,13,72.64,2.52,9.31
28.798000,-77.8750,13,72.64,2.52,9.31
28.808000,-75.6250,13,72.64,2.52,9.31
28.818000,-75.8750,13,72.64,2.52,9.31
28.828000,-76.1250,13,72.64,2.52,9.31
28.838000,-87.1250,13,72.64,2.52,9.31
28.848000,-87.6250,13,72.64,2.52,9.31
28.858000,-84.2500,13,72.64,2.52,9.31
28.868000,-84.0000,13,72.64,2.52,9.31
28.878000,-82.2500,13,72.64,2.52,9.31
28.888000,-87.3750,13,72.64,2.52,9.31
28.898000,-85.0000,13,72.64,2.52,9.31
28.908000,-84.3750,13,72.64,2.52,9.31
28.918000,-87.2500,13,72.64,2.52,9.31
28.928000,-84.6250,13,72.64,2.52,9.31
28.938000,-82.6250,13,72.64,2.52,9.31
28.948000,-76.8750,13,72.64,2.52,9.31
28.958000,-79.2500,13,72.64,2.52,9.31
28.968000,-78.0000,13,72.64,2.52,9.31
28.978000,-74.7500,13,72.64,2.52,9.31
28.988000,-81.3750,13,72.64,2.52,9.31
28.998000,-76.3750,13,72.64,2.52,9.31
29.008000,-74.2500,13,72.64,2.52,9.31
29.018000,-72.2500,13,72.64,2.52,9.31
29.028000,-76.7500,13,72.64,2.52,9.31
29.038000,-68.0000,13,72.64,2.52,9.31
29.048000,-71.5000,13,72.64,2.52,9.31
29.058000,-72.1250,13,72.64,2.52,9.31
29.068000,-72.5000,13,72.64,2.52,9.31
29.078000,-75.6250,13,72.64,2.52,9.31
29.088000,-82.5000,13,72.64,2.52,9.31
29.098000,-75.7500,13,72.64,2.52,9.31
29.108000,-86.8750,13,72.64,2.52,9.31
29.118000,-83.5000,13,72.64,2.52,9.31
29.128000,-85.5000,13,72.64,2.52,9.31
29.138000,-84.8750,13,72.64,2.52,9.31
29.148000,-69.0000,13,72.64,2.52,9.31
29.158000,-70.0000,13,72.64,2.52,9.31
29.168000,-71.0000,13,72.64,2.52,9.31
29.178000,-66.6250,13,72.64,2.52,9.31
29.188000,-67.2500,13,72.64,2.52,9.31
29.198000,-80.3750,13,72.64,2.52,9.31
29.208000,-82.3750,13,72.64,2.52,9.31
29.218000,-80.5000,13,72.64,2.52,9.31
29.228000,-84.0000,13,72.64,2.52,9.31
29.238000,-82.6250,13,72.64,2.52,9.31
29.248000,-83.1250,13,72.64,2.52,9.31
29.258000,-81.8750,13,72.64,2.52,9.31
29.268000,-82.5000,13,72.64,2.52,9.31
29.278000,-79.3750,13,72.64,2.52,9.31
29.288000,-74.3750,13,72.64,2.52,9.31
29.298000,-81.3750,13,72.64,2.52,9.31
29.308000,-84.7500,13,72.64,2.52,9.31
29.318000,-88.0000,13,72.64,2.52,9.31
29.328000,-77.7500,13,72.64,2.52,9.31
29.338000,-87.3750,13,72.64,2.52,9.31
29.348000,-81.8750,13,72.64,2.52,9.31
29.358000,-79.0000,13,72.64,2.52,9.31
29.368000,-81.1250,13,72.64,2.52,9.31
29.378000,-78.7500,13,72.64,2.52,9.31
29.388000,-82.7500,13,72.64,2.52,9.31
29.398000,-88.5000,13,72.64,2.52,9.31
29.408000,-87.3750,13,72.64,2.52,9.31
29.418000,-90.6250,13,72.64,2.52,9.31
29.428000,-87.2500,13,72.64,2.52,9.31
29.438000,-88.0000,13,72.64,2.52,9.31
29.448000,-78.3750,13,72.64,2.52,9.31
29.458000,-81.5000,13,72.64,2.52,9.31
29.468000,-79.0000,13,72.64,2.52,9.31
29.478000,-81.6250,13,72.64,2.52,9.31
29.488000,-78.7500,13,72.64,2.52,9.31
29.498000,-79.1250,13,72.64,2.52,9.31
29.508000,-85.1250,13,72.64,2.52,9.31
29.518000,-84.7500,13,72.64,2.52,9.31
29.528000,-89.1250,13,72.64,2.52,9.31
29.538000,-85.7500,13,72.64,2.52,9.31
29.548000,-87.7500,13,72.64,2.52,9.31
29.558000,-86.1250,13,72.64,2.52,9.31
29.568000,-88.2500,13,72.64,2.52,9.31
29.578000,-79.0000,13,72.64,2.52,9.31
29.588000,-78.3750,13,72.64,2.52,9.31
29.598000,-77.8750,13,72.64,2.52,9.31
29.608000,-83.3750,13,72.64,2.52,9.31
29.618000,-85.7500,13,72.64,2.52,9.31
29.628000,-85.1250,13,72.64,2.52,9.31
29.638000,-86.0000,13,72.64,2.52,9.31
29.648000,-85.0000,13,72.64,2.52,9.31
29.658000,-87.6250,13,72.64,2.52,9.31
29.668000,-84.5000,13,72.64,2.52,9.31
29.678000,-87.7500,13,72.64,2.52,9.31
29.688000,-84.6250,13,72.64,2.52,9.31
29.698000,-87.0000,13,72.64,2.52,9.31
29.708000,-84.6250,13,72.64,2.52,9.31
29.718000,-86.2500,13,72.64,2.52,9.31
29.728000,-79.8750,13,72.64,2.52,9.31
29.738000,-80.0000,13,72.64,2.52,9.31
29.748000,-79.0000,13,72.64,2.52,9.31
29.758000,-92.8750,13,72.64,2.52,9.31
29.768000,-89.8750,13,72.64,2.52,9.31
29.778000,-85.0000,13,72.64,2.52,9.31
29.788000,-83.2500,13,72.64,2.52,9.31
29.798000,-81.5000,13,72.64,2.52,9.31
29.808000,-81.3750,13,72.64,2.52,9.31
29.818000,-75.5000,13,72.64,2.52,9.31
29.828000,-79.8750,13,72.64,2.52,9.31
29.838000,-74.5000,13,72.64,2.52,9.31
29.848000,-74.0000,13,72.64,2.52,9.31
29.858000,-73.0000,13,72.64,2.52,9.31
29.868000,-71.5000,13,72.64,2.52,9.31
29.878000,-72.5000,13,72.64,2.52,9.31
29.888000,-70.0000,13,72.64,2.52,9.31
29.898000,-72.0000,13,72.64,2.52,9.31
29.908000,-68.8750,13,72.64,2.52,9.31
29.918000,-72.1250,13,72.64,2.52,9.31
29.928000,-71.8750,13,72.64,2.52,9.31
29.938000,-76.2500,13,72.64,2.52,9.31
29.948000,-80.3750,13,72.64,2.52,9.31
29.958000,-80.5000,13,72.64,2.52,9.31
29.968000,-84.2500,13,72.64,2.52,9.31
29.978000,-81.0000,13,72.64,2.52,9.31
29.988000,-85.6250,13,72.64,2.52,9.31
29.998000,-88.0000,13,72.64,2.52,9.31
30.008000,-86.5000,13,72.64,2.52,9.31
30.018000,-87.5000,13,72.64,2.52,9.31
30.028000,-85.5000,13,72.64,2.52,9.31
30.038000,-87.2500,13,72.64,2.52,9.31
30.048000,-85.5000,13,72.64,2.52,9.31
30.058000,-86.5000,13,72.64,2.52,9.31
30.068000,-87.3750,13,72.64,2.52,9.31
30.078000,-86.6250,13,72.64,2.52,9.31
30.088000,-86.3750,15,72.64,2.08,9.45
30.098000,-88.6250,15,72.64,2.08,9.45
30.108000,-86.3750,15,72.64,2.08,9.45
30.118000,-88.1250,15,72.64,2.08,9.45
30.128000,-86.2500,15,72.64,2.08,9.45
30.138000,-89.0000,15,72.64,2.08,9.45
30.148000,-86.5000,15,72.64,2.08,9.45
30.158000,-89.1250,15,72.64,2.08,9.45
30.168000,-86.5000,15,72.64,2.08,9.45
30.178000,-88.3750,15,72.64,2.08,9.45
30.188000,-87.5000,15,72.64,2.08,9.45
30.198000,-89.1250,15,72.64,2.08,9.45
30.208000,-86.5000,15,72.64,2.08,9.45
30.218000,-90.5000,15,72.64,2.08,9.45
30.228000,-86.3750,15,72.64,2.08,9.45
30.238000,-90.3750,15,72.64,2.08,9.45
30.248000,-87.7500,15,72.64,2.08,9.45
30.258000,-90.5000,15,72.64,2.08,9.45
30.268000,-89.5000,15,72.64,2.08,9.45
30.278000,-91.5000,15,72.64,2.08,9.45
30.288000,-90.2500,15,72.64,2.08,9.45
30.298000,-92.1250,15,72.64,2.08,9.45
30.308000,-90.0000,15,72.64,2.08,9.45
30.318000,-93.7500,15,72.64,2.08,9.45
30.328000,-90.7500,15,72.64,2.08,9.45
30.338000,-94.2500,15,72.64,2.08,9.45
30.348000,-87.7500,15,72.64,2.08,9.45
30.358000,-88.7500,15,72.64,2.08,9.45
30.368000,-82.5000,15,72.64,2.08,9.45
30.378000,-91.2500,15,72.64,2.08,9.45
30.388000,-99.5000,15,72.64,2.08,9.45
30.398000,-100.1250,15,72.64,2.08,9.45
30.408000,-89.0000,15,72.64,2.08,9.45
30.418000,-91.3750,15,72.64,2.08,9.45
30.428000,-90.2500,15,72.64,2.08,9.45
30.438000,-91.8750,15,72.64,2.08,9.45
30.448000,-88.7500,15,72.64,2.08,9.45
30.458000,-91.6250,15,72.64,2.08,9.45
30.468000,-88.1250,15,72.64,2.08,9.45
30.478000,-90.3750,15,72.64,2.08,9.45
30.488000,-89.3750,15,72.64,2.08,9.45
30.498000,-90.2500,15,72.64,2.08,9.45
30.508000,-87.7500,15,72.64,2.08,9.45
30.518000,-88.5000,15,72.64,2.08,9.45
30.528000,-85.2500,15,72.64,2.08,9.45
30.538000,-85.6250,15,72.64,2.08,9.45
30.548000,-83.7500,15,72.64,2.08,9.45
30.558000,-83.5000,15,72.64,2.08,9.45
30.568000,-81.5000,15,72.64,2.08,9.45
30.578000,-82.2500,15,72.64,2.08,9.45
30.588000,-82.6250,15,72.64,2.08,9.45
30.598000,-86.8750,15,72.64,2.08,9.45
30.608000,-88.1250,15,72.64,2.08,9.45
30.618000,-90.6250,15,72.64,2.08,9.45
30.628000,-91.0000,15,72.64,2.08,9.45
30.638000,-89.7500,15,72.64,2.08,9.45
30.648000,-92.6250,15,72.64,2.08,9.45
30.658000,-89.3750,15,72.64,2.08,9.45
30.668000,-92.8750,15,72.64,2.08,9.45
30.678000,-90.2500,15,72.64,2.08,9.45
30.688000,-84.6250,15,72.64,2.08,9.45
30.698000,-90.3750,15,72.64,2.08,9.45
30.708000,-85.8750,15,72.64,2.08,9.45
30.718000,-89.3750,15,72.64,2.08,9.45
30.728000,-83.3750,15,72.64,2.08,9.45
30.738000,-85.3750,15,72.64,2.08,9.45
30.748000,-85.8750,15,72.64,2.08,9.45
30.758000,-86.8750,15,72.64,2.08,9.45
30.768000,-83.8750,15,72.64,2.08,9.45
30.778000,-86.8750,15,72.64,2.08,9.45
30.788000,-89.0000,15,72.64,2.08,9.45
30.798000,-85.3750,15,72.64,2.08,9.45
30.808000,-88.7500,15,72.64,2.08,9.45
30.818000,-87.2500,15,72.64,2.08,9.45
30.828000,-88.7500,15,72.64,2.08,9.45
30.838000,-86.6250,15,72.64,2.08,9.45
30.848000,-89.0000,15,72.64,2.08,9.45
30.858000,-91.7500,15,72.64,2.08,9.45
30.868000,-89.1250,15,72.64,2.08,9.45
30.878000,-91.7500,15,72.64,2.08,9.45
30.888000,-88.6250,15,72.64,2.08,9.45
30.898000,-92.0000,15,72.64,2.08,9.45
30.908000,-92.7500,15,72.64,2.08,9.45
30.918000,-91.0000,15,72.64,2.08,9.45
30.928000,-91.8750,15,72.64,2.08,9.45
30.938000,-89.5000,15,72.64,2.08,9.45
30.948000,-92.8750,15,72.64,2.08,9.45
30.958000,-91.6250,15,72.64,2.08,9.45
30.968000,-93.8750,15,72.64,2.08,9.45
30.978000,-92.1250,15,72.64,2.08,9.45
30.988000,-93.0000,15,72.64,2.08,9.45
30.998000,-91.8750,15,72.64,2.08,9.45
31.008000,-95.5000,15,72.64,2.08,9.45
31.018000,-92.6250,15,72.64,2.08,9.45
31.028000,-95.8750,15,72.64,2.08,9.45
31.038000,-93.1250,15,72.64,2.08,9.45
31.048000,-95.5000,15,72.64,2.08,9.45
31.058000,-92.0000,15,72.64,2.08,9.45
31.068000,-91.5000,15,72.64,2.08,9.45
31.078000,-82.3750,15,72.64,2.08,9.45
31.088000,-87.3750,15,72.64,2.08,9.45
31.098000,-99.1250,15,72.64,2.08,9.45
31.108000,-102.7500,15,72.64,2.08,9.45
31.118000,-90.0000,15,72.64,2.08,9.45
31.128000,-93.5000,15,72.64,2.08,9.45
31.138000,-90.1250,15,72.64,2.08,9.45
31.148000,-93.0000,15,72.64,2.08,9.45
31.158000,-90.5000,15,72.64,2.08,9.45
31.168000,-93.1250,15,72.64,2.08,9.45
31.178000,-92.6250,15,72.64,2.08,9.45
31.188000,-95.3750,15,72.64,2.08,9.45
31.198000,-91.8750,15,72.64,2.08,9.45
31.208000,-93.6250,15,72.64,2.08,9.45
31.218000,-89.8750,15,72.64,2.08,9.45
31.228000,-91.5000,15,72.64,2.08,9.45
31.238000,-86.8750,15,72.64,2.08,9.45
31.248000,-89.0000,15,72.64,2.08,9.45
31.258000,-84.3750,15,72.64,2.08,9.45
31.268000,-86.3750,15,72.64,2.08,9.45
31.278000,-83.7500,15,72.64,2.08,9.45
31.288000,-86.1250,15,72.64,2.08,9.45
31.298000,-85.0000,15,72.64,2.08,9.45
31.308000,-89.1250,15,72.64,2.08,9.45
31.318000,-89.2500,15,72.64,2.08,9.45
31.328000,-95.0000,15,72.64,2.08,9.45
31.338000,-93.1250,15,72.64,2.08,9.45
31.348000,-96.7500,15,72.64,2.08,9.45
31.358000,-95.2500,15,72.64,2.08,9.45
31.368000,-98.0000,15,72.64,2.08,9.45
31.378000,-97.2500,15,72.64,2.08,9.45
31.388000,-100.5000,15,72.64,2.08,9.45
31.398000,-97.7500,15,72.64,2.08,9.45
31.408000,-101.0000,15,72.64,2.08,9.45
31.418000,-98.5000,15,72.64,2.08,9.45
31.428000,-99.6250,15,72.64,2.08,9.45
31.438000,-96.6250,15,72.64,2.08,9.45
31.448000,-99.1250,15,72.64,2.08,9.45
31.458000,-96.8750,15,72.64,2.08,9.45
31.468000,-98.3750,15,72.64,2.08,9.45
31.478000,-95.8750,15,72.64,2.08,9.45
31.488000,-98.8750,15,72.64,2.08,9.45
31.498000,-94.7500,15,72.64,2.08,9.45
31.508000,-99.0000,15,72.64,2.08,9.45
31.518000,-96.5000,15,72.64,2.08,9.45
31.528000,-98.2500,15,72.64,2.08,9.45
31.538000,-95.6250,15,72.64,2.08,9.45
31.548000,-92.7500,15,72.64,2.08,9.45
31.558000,-96.1250,15,72.64,2.08,9.45
31.568000,-93.0000,15,72.64,2.08,9.45
31.578000,-96.7500,15,72.64,2.08,9.45
31.588000,-92.2500,15,72.64,2.08,9.45
31.598000,-88.2500,15,72.64,2.08,9.45
31.608000,-93.6250,15,72.64,2.08,9.45
31.618000,-88.5000,15,72.64,2.08,9.45
31.628000,-92.7500,15,72.64,2.08,9.45
31.638000,-85.7500,15,72.64,2.08,9.45
31.648000,-88.0000,15,72.64,2.08,9.45
31.658000,-87.6250,15,72.64,2.08,9.45
31.668000,-87.7500,15,72.64,2.08,9.45
31.678000,-83.8750,15,72.64,2.08,9.45
31.688000,-87.0000,15,72.64,2.08,9.45
31.698000,-91.5000,15,72.64,2.08,9.45
31.708000,-87.0000,15,72.64,2.08,9.45
31.718000,-90.7500,15,72.64,2.08,9.45
31.728000,-87.3750,15,72.64,2.08,9.45
31.738000,-89.7500,15,72.64,2.08,9.45
31.748000,-92.3750,15,72.64,2.08,9.45
31.758000,-91.1250,15,72.64,2.08,9.45
31.768000,-86.3750,15,72.64,2.08,9.45
31.778000,-88.8750,15,72.64,2.08,9.45
31.788000,-87.5000,15,72.64,2.08,9.45
31.798000,-85.8750,15,72.64,2.08,9.45
31.808000,-79.6250,15,72.64,2.08,9.45
31.818000,-76.2500,15,72.64,2.08,9.45
31.828000,-80.6250,15,72.64,2.08,9.45
31.838000,-83.3750,15,72.64,2.08,9.45
31.848000,-83.7500,15,72.64,2.08,9.45
31.858000,-85.7500,15,72.64,2.08,9.45
31.868000,-82.2500,15,72.64,2.08,9.45
31.878000,-85.2500,15,72.64,2.08,9.45
31.888000,-77.7500,15,72.64,2.08,9.45
31.898000,-75.5000,15,72.64,2.08,9.45
31.908000,-77.3750,15,72.64,2.08,9.45
31.918000,-74.5000,15,72.64,2.08,9.45
31.928000,-76.8750,15,72.64,2.08,9.45
31.938000,-78.0000,15,72.64,2.08,9.45
31.948000,-76.2500,15,72.64,2.08,9.45
31.958000,-82.1250,15,72.64,2.08,9.45
31.968000,-80.8750,15,72.64,2.08,9.45
31.978000,-79.3750,15,72.64,2.08,9.45
31.988000,-78.1250,15,72.64,2.08,9.45
31.998000,-83.1250,15,72.64,2.08,9.45
32.008000,-73.5000,15,72.64,2.08,9.45
32.018000,-74.7500,15,72.64,2.08,9.45
32.028000,-74.5000,15,72.64,2.08,9.45
32.038000,-71.7500,15,72.64,2.08,9.45
32.048000,-78.5000,15,72.64,2.08,9.45
32.058000,-80.1250,15,72.64,2.08,9.45
32.068000,-84.8750,15,72.64,2.08,9.45
32.078000,-87.0000,15,72.64,2.08,9.45
32.088000,-76.1250,15,72.64,2.08,9.45
32.098000,-87.2500,15,72.64,2.08,9.45
32.108000,-76.0000,15,72.64,2.08,9.45
32.118000,-85.2500,15,72.64,2.08,9.45
32.128000,-76.1250,15,72.64,2.08,9.45
32.138000,-80.8750,15,72.64,2.08,9.45
32.148000,-76.8750,15,72.64,2.08,9.45
32.158000,-80.0000,15,72.64,2.08,9.45
32.168000,-84.6250,15,72.64,2.08,9.45
32.178000,-80.5000,15,72.64,2.08,9.45
32.188000,-85.5000,15,72.64,2.08,9.45
32.198000,-82.8750,15,72.64,2.08,9.45
32.208000,-85.6250,15,72.64,2.08,9.45
32.218000,-86.1250,15,72.64,2.08,9.45
32.228000,-88.5000,15,72.64,2.08,9.45
32.238000,-89.1250,15,72.64,2.08,9.45
32.248000,-86.2500,15,72.64,2.08,9.45
32.258000,-78.5000,15,72.64,2.08,9.45
32.268000,-83.1250,15,72.64,2.08,9.45
32.278000,-86.3750,15,72.64,2.08,9.45
32.288000,-84.8750,15,72.64,2.08,9.45
32.298000,-85.2500,15,72.64,2.08,9.45
32.308000,-89.7500,15,72.64,2.08,9.45
32.318000,-90.2500,15,72.64,2.08,9.45
32.328000,-88.5000,15,72.64,2.08,9.45
32.338000,-80.3750,15,72.64,2.08,9.45
32.348000,-87.2500,15,72.64,2.08,9.45
32.358000,-88.1250,15,72.64,2.08,9.45
32.368000,-91.5000,15,72.64,2.08,9.45
32.378000,-87.2500,15,72.64,2.08,9.45
32.388000,-89.6250,15,72.64,2.08,9.45
32.398000,-86.1250,15,72.64,2.08,9.45
32.408000,-84.3750,15,72.64,2.08,9.45
32.418000,-92.0000,15,72.64,2.08,9.45
32.428000,-92.7500,15,72.64,2.08,9.45
32.438000,-92.1250,15,72.64,2.08,9.45
32.448000,-94.5000,15,72.64,2.08,9.45
32.458000,-93.3750,15,72.64,2.08,9.45
32.468000,-86.2500,15,72.64,2.08,9.45
32.478000,-89.5000,15,72.64,2.08,9.45
32.488000,-89.7500,15,72.64,2.08,9.45
32.498000,-87.0000,15,72.64,2.08,9.45
32.508000,-81.7500,15,72.64,2.08,9.45
32.518000,-92.2500,15,72.64,2.08,9.45
32.528000,-90.3750,15,72.64,2.08,9.45
32.538000,-92.3750,15,72.64,2.08,9.45
32.548000,-92.2500,15,72.64,2.08,9.45
32.558000,-81.7500,15,72.64,2.08,9.45
32.568000,-86.5000,15,72.64,2.08,9.45
32.578000,-91.3750,15,72.64,2.08,9.45
32.588000,-88.6250,15,72.64,2.08,9.45
32.598000,-89.7500,15,72.64,2.08,9.45
32.608000,-88.2500,15,72.64,2.08,9.45
32.618000,-89.5000,15,72.64,2.08,9.45
32.628000,-87.6250,15,72.64,2.08,9.45
32.638000,-85.5000,15,72.64,2.08,9.45
32.648000,-81.3750,15,72.64,2.08,9.45
32.658000,-80.1250,15,72.64,2.08,9.45
32.668000,-80.8750,15,72.64,2.08,9.45
32.678000,-86.1250,15,72.64,2.08,9.45
32.688000,-87.0000,15,72.64,2.08,9.45
32.698000,-90.8750,15,72.64,2.08,9.45
32.708000,-88.3750,15,72.64,2.08,9.45
32.718000,-80.5000,15,72.64,2.08,9.45
32.728000,-80.5000,15,72.64,2.08,9.45
32.738000,-86.5000,15,72.64,2.08,9.45
32.748000,-85.5000,15,72.64,2.08,9.45
32.758000,-85.7500,15,72.64,2.08,9.45
32.768000,-83.8750,15,72.64,2.08,9.45
32.778000,-85.6250,15,72.64,2.08,9.45
32.788000,-87.8750,15,72.64,2.08,9.45
32.798000,-86.3750,15,72.64,2.08,9.45
32.808000,-86.0000,15,72.64,2.08,9.45
32.818000,-85.2500,15,72.64,2.08,9.45
32.828000,-82.3750,15,72.64,2.08,9.45
32.838000,-70.8750,15,72.64,2.08,9.45
32.848000,-75.1250,15,72.64,2.08,9.45
32.858000,-82.6250,15,72.64,2.08,9.45
32.868000,-77.5000,15,72.64,2.08,9.45
32.878000,-79.7500,15,72.64,2.08,9.45
32.888000,-82.2500,15,72.64,2.08,9.45
32.898000,-81.3750,15,72.64,2.08,9.45
32.908000,-80.2500,15,72.64,2.08,9.45
32.918000,-80.3750,15,72.64,2.08,9.45
32.928000,-84.0000,15,72.64,2.08,9.45
32.938000,-81.2500,15,72.64,2.08,9.45
32.948000,-83.1250,15,72.64,2.08,9.45
32.958000,-73.0000,15,72.64,2.08,9.45
32.968000,-79.6250,15,72.64,2.08,9.45
32.978000,-77.8750,15,72.64,2.08,9.45
32.988000,-80.3750,15,72.64,2.08,9.45
32.998000,-78.0000,15,72.64,2.08,9.45
33.008000,-83.1250,15,72.64,2.08,9.45
33.018000,-76.6250,15,72.64,2.08,9.45
33.028000,-70.7500,15,72.64,2.08,9.45
33.038000,-78.5000,15,72.64,2.08,9.45
33.048000,-87.5000,15,72.64,2.08,9.45
33.058000,-77.6250,15,72.64,2.08,9.45
33.068000,-77.5000,15,72.64,2.08,9.45
33.078000,-77.3750,15,72.64,2.08,9.45
33.088000,-78.3750,15,72.64,2.08,9.45
33.098000,-77.8750,15,72.64,2.08,9.45
33.108000,-79.2500,15,72.64,2.08,9.45
33.118000,-79.7500,15,72.64,2.08,9.45
33.128000,-80.6250,15,72.64,2.08,9.45
33.138000,-80.3750,15,72.64,2.08,9.45
33.148000,-83.0000,15,72.64,2.08,9.45
33.158000,-81.0000,15,72.64,2.08,9.45
33.168000,-82.5000,15,72.64,2.08,9.45
33.178000,-85.0000,15,72.64,2.08,9.45
33.188000,-81.5000,15,72.64,2.08,9.45
33.198000,-76.5000,15,72.64,2.08,9.45
33.208000,-81.2500,15,72.64,2.08,9.45
33.218000,-84.6250,15,72.64,2.08,9.45
33.228000,-80.3750,15,72.64,2.08,9.45
33.238000,-80.6250,15,72.64,2.08,9.45
33.248000,-88.1250,15,72.64,2.08,9.45
33.258000,-84.3750,15,72.64,2.08,9.45
33.268000,-86.6250,15,72.64,2.08,9.45
33.278000,-76.1250,15,72.64,2.08,9.45
33.288000,-84.6250,15,72.64,2.08,9.45
33.298000,-81.3750,15,72.64,2.08,9.45
33.308000,-85.3750,15,72.64,2.08,9.45
33.318000,-79.5000,15,72.64,2.08,9.45
33.328000,-78.3750,15,72.64,2.08,9.45
33.338000,-76.7500,15,72.64,2.08,9.45
33.348000,-82.0000,15,72.64,2.08,9.45
33.358000,-84.8750,15,72.64,2.08,9.45
33.368000,-82.8750,15,72.64,2.08,9.45
33.378000,-82.1250,15,72.64,2.08,9.45
33.388000,-81.7500,15,72.64,2.08,9.45
33.398000,-77.3750,15,72.64,2.08,9.45
33.408000,-80.7500,15,72.64,2.08,9.45
33.418000,-83.6250,15,72.64,2.08,9.45
33.428000,-83.6250,15,72.64,2.08,9.45
33.438000,-81.3750,15,72.64,2.08,9.45
33.448000,-82.2500,15,72.64,2.08,9.45
33.458000,-81.8750,15,72.64,2.08,9.45
33.468000,-83.3750,15,72.64,2.08,9.45
33.478000,-77.3750,15,72.64,2.08,9.45
33.488000,-75.6250,15,72.64,2.08,9.45
33.498000,-78.5000,15,72.64,2.08,9.45
33.508000,-82.0000,15,72.64,2.08,9.45
33.518000,-83.1250,15,72.64,2.08,9.45
33.528000,-81.1250,15,72.64,2.08,9.45
33.538000,-83.8750,15,72.64,2.08,9.45
33.548000,-85.3750,15,72.64,2.08,9.45
33.558000,-81.6250,15,72.64,2.08,9.45
33.568000,-81.7500,15,72.64,2.08,9.45
33.578000,-71.7500,15,72.64,2.08,9.45
33.588000,-77.8750,15,72.64,2.08,9.45
33.598000,-82.8750,15,72.64,2.08,9.45
33.608000,-98.8750,15,72.64,2.08,9.45
33.618000,-74.0000,15,72.64,2.08,9.45
33.628000,-73.3750,15,72.64,2.08,9.45
33.638000,-77.3750,15,72.64,2.08,9.45
33.648000,-80.2500,15,72.64,2.08,9.45
33.658000,-81.3750,15,72.64,2.08,9.45
33.668000,-79.5000,15,72.64,2.08,9.45
33.678000,-81.6250,15,72.64,2.08,9.45
33.688000,-79.2500,15,72.64,2.08,9.45
33.698000,-82.5000,15,72.64,2.08,9.45
33.708000,-80.3750,15,72.64,2.08,9.45
33.718000,-80.5000,15,72.64,2.08,9.45
33.728000,-78.6250,15,72.64,2.08,9.45
33.738000,-78.6250,15,72.64,2.08,9.45
33.748000,-75.8750,15,72.64,2.08,9.45
33.758000,-73.8750,15,72.64,2.08,9.45
33.768000,-76.0000,15,72.64,2.08,9.45
33.778000,-72.5000,15,72.64,2.08,9.45
33.788000,-69.7500,15,72.64,2.08,9.45
33.798000,-75.7500,15,72.64,2.08,9.45
33.808000,-72.3750,15,72.64,2.08,9.45
33.818000,-82.6250,15,72.64,2.08,9.45
33.828000,-85.3750,15,72.64,2.08,9.45
33.838000,-80.5000,15,72.64,2.08,9.45
33.848000,-85.6250,15,72.64,2.08,9.45
33.858000,-86.5000,15,72.64,2.08,9.45
33.868000,-84.5000,15,72.64,2.08,9.45
33.878000,-86.7500,15,72.64,2.08,9.45
33.888000,-85.5000,15,72.64,2.08,9.45
