timestamp_s,filtered_mV,loop,hr_bpm,snr_wb_db,snr_qrs_db
0.338000,-93.6250,0,,,
0.348000,-97.1250,0,,,
0.358000,-98.3750,0,,,
0.368000,-95.6250,0,,,
0.378000,-99.1250,0,,,
0.388000,-96.3750,0,,,
0.398000,-100.5000,0,,,
0.408000,-96.7500,0,,,
0.418000,-100.2500,0,,,
0.428000,-96.8750,0,,,
0.438000,-93.8750,0,,,
0.448000,-96.2500,0,,,
0.458000,-87.6250,0,,,
0.468000,-78.7500,0,,,
0.478000,-78.2500,0,,,
0.488000,-91.6250,0,,,
0.498000,-106.7500,0,,,
0.508000,-93.3750,0,,,
0.518000,-86.2500,0,,,
0.528000,-84.6250,0,,,
0.538000,-84.3750,0,,,
0.548000,-85.7500,0,,,
0.558000,-83.3750,0,,,
0.568000,-85.0000,0,,,
0.578000,-82.8750,0,,,
0.588000,-84.0000,0,,,
0.598000,-81.5000,0,,,
0.608000,-82.2500,0,,,
0.618000,-79.5000,0,,,
0.628000,-79.8750,0,,,
0.638000,-75.5000,0,,,
0.648000,-76.5000,0,,,
0.658000,-71.5000,0,,,
0.668000,-72.6250,0,,,
0.678000,-68.2500,0,,,
0.688000,-70.0000,0,,,
0.698000,-68.1250,0,,,
0.708000,-72.6250,0,,,
0.718000,-72.7500,0,,,
0.728000,-79.5000,0,,,
0.738000,-81.2500,0,,,
0.748000,-86.1250,0,,,
0.758000,-84.8750,0,,,
0.768000,-88.8750,0,,,
0.778000,-86.6250,0,,,
0.788000,-90.1250,0,,,
0.798000,-87.0000,0,,,
0.808000,-90.7500,0,,,
0.818000,-87.0000,0,,,
0.828000,-90.6250,0,,,
0.838000,-86.7500,0,,,
0.848000,-90.0000,0,,,
0.858000,-84.1250,0,,,
0.868000,-89.3750,0,,,
0.878000,-83.6250,0,,,
0.888000,-88.5000,0,,,
0.898000,-83.6250,0,,,
0.908000,-87.6250,0,,,
0.918000,-82.6250,0,,,
0.928000,-87.2500,0,,,
0.938000,-83.8750,0,,,
0.948000,-88.2500,0,,,
0.958000,-81.8750,0,,,
0.968000,-87.5000,0,,,
0.978000,-81.8750,0,,,
0.988000,-87.2500,0,,,
0.998000,-81.8750,0,,,
1.008000,-86.1250,0,,,
1.018000,-81.0000,0,,,
1.028000,-85.3750,0,,,
1.038000,-80.0000,0,,,
1.048000,-84.5000,0,,,
1.058000,-79.6250,0,,,
1.068000,-83.7500,0,,,
1.078000,-79.3750,0,,,
1.088000,-82.8750,0,,,
1.098000,-77.6250,0,,,
1.108000,-79.6250,0,,,
1.118000,-75.5000,0,,,
1.128000,-78.3750,0,,,
1.138000,-73.5000,0,,,
1.148000,-77.6250,0,,,
1.158000,-75.1250,0,,,
1.168000,-78.6250,0,,,
1.178000,-75.6250,0,,,
1.188000,-78.5000,0,,,
1.198000,-75.7500,0,,,
1.208000,-78.3750,0,,,
1.218000,-74.6250,0,,,
1.228000,-77.0000,0,,,
1.238000,-74.1250,0,,,
1.248000,-76.5000,0,,,
1.258000,-71.7500,0,,,
1.268000,-66.3750,0,,,
1.278000,-49.3750,0,,,
1.288000,-59.7500,0,,,
1.298000,-79.1250,0,,,
1.308000,-91.0000,0,,,
1.318000,-70.0000,0,,,
1.328000,-66.7500,0,,,
1.338000,-63.8750,0,,,
1.348000,-67.1250,0,,,
1.358000,-64.0000,0,,,
1.368000,-64.6250,0,,,
1.378000,-64.0000,0,,,
1.388000,-63.0000,0,,,
1.398000,-61.7500,0,,,
1.408000,-59.8750,0,,,
1.418000,-58.8750,0,,,
1.428000,-57.8750,0,,,
1.438000,-56.0000,0,,,
1.448000,-58.2500,0,,,
1.458000,-50.8750,0,,,
1.468000,-53.2500,0,,,
1.478000,-46.2500,0,,,
1.488000,-50.3750,0,,,
1.498000,-49.6250,0,,,
1.508000,-48.8750,0,,,
1.518000,-53.6250,0,,,
1.528000,-55.1250,0,,,
1.538000,-61.0000,0,,,
1.548000,-64.3750,0,,,
1.558000,-66.2500,0,,,
1.568000,-68.8750,0,,,
1.578000,-68.8750,0,,,
1.588000,-69.5000,0,,,
1.598000,-66.2500,0,,,
1.608000,-69.8750,0,,,
1.618000,-65.7500,0,,,
1.628000,-69.3750,0,,,
1.638000,-66.1250,0,,,
1.648000,-62.8750,0,,,
1.658000,-63.8750,0,,,
1.668000,-61.3750,0,,,
1.678000,-62.3750,0,,,
1.688000,-58.8750,0,,,
1.698000,-58.8750,0,,,
1.708000,-60.0000,0,,,
1.718000,-60.7500,0,,,
1.728000,-60.3750,0,,,
1.738000,-59.5000,0,,,
1.748000,-57.8750,0,,,
1.758000,-57.8750,0,,,
1.768000,-58.2500,0,,,
1.778000,-58.3750,0,,,
1.788000,-57.8750,0,,,
1.798000,-59.1250,0,,,
1.808000,-59.0000,0,,,
1.818000,-59.5000,0,,,
1.828000,-57.8750,0,,,
1.838000,-60.2500,0,,,
1.848000,-58.7500,0,,,
1.858000,-58.5000,0,,,
1.868000,-57.7500,0,,,
1.878000,-58.6250,0,,,
1.888000,-58.0000,0,,,
1.898000,-58.1250,0,,,
1.908000,-56.0000,0,,,
1.918000,-57.7500,0,,,
1.928000,-53.8750,0,,,
1.938000,-57.2500,0,,,
1.948000,-55.1250,0,,,
1.958000,-58.6250,0,,,
1.968000,-55.6250,0,,,
1.978000,-59.7500,0,,,
1.988000,-57.0000,0,,,
1.998000,-60.5000,0,,,
2.008000,-55.0000,0,,,
2.018000,-60.5000,0,,,
2.028000,-56.2500,0,,,
2.038000,-60.7500,0,,,
2.048000,-55.5000,0,,,
2.058000,-54.7500,0,,,
2.068000,-40.2500,0,,,
2.078000,-42.6250,0,,,
2.088000,-50.8750,0,,,
2.098000,-72.1250,0,,,
2.108000,-61.3750,0,,,
2.118000,-52.0000,0,,,
2.128000,-49.0000,0,,,
2.138000,-55.2500,0,,,
2.148000,-52.2500,0,,,
2.158000,-55.5000,0,,,
2.168000,-52.5000,0,,,
2.178000,-54.2500,0,,,
2.188000,-51.5000,0,,,
2.198000,-53.5000,0,,,
2.208000,-49.8750,0,,,
2.218000,-52.6250,0,,,
2.228000,-48.2500,0,,,
2.238000,-49.1250,0,,,
2.248000,-45.2500,0,,,
2.258000,-46.0000,0,,,
2.268000,-41.5000,0,,,
2.278000,-42.6250,0,,,
2.288000,-39.7500,0,,,
2.298000,-42.8750,0,,,
2.308000,-41.1250,0,,,
2.318000,-47.5000,0,,,
2.328000,-50.3750,0,,,
2.338000,-55.6250,0,,,
2.348000,-57.2500,0,,,
2.358000,-60.1250,0,,,
2.368000,-60.0000,0,,,
2.378000,-62.0000,0,,,
2.388000,-60.1250,0,,,
2.398000,-66.0000,0,,,
2.408000,-60.2500,0,,,
2.418000,-66.2500,0,,,
2.428000,-61.0000,0,,,
2.438000,-65.1250,0,,,
2.448000,-67.2500,0,,,
2.458000,-64.3750,0,,,
2.468000,-66.5000,0,,,
2.478000,-64.8750,0,,,
2.488000,-66.2500,0,,,
2.498000,-68.3750,0,,,
2.508000,-65.6250,0,,,
2.518000,-69.7500,0,,,
2.528000,-66.5000,0,,,
2.538000,-69.7500,0,,,
2.548000,-68.2500,0,,,
2.558000,-70.8750,0,,,
2.568000,-67.6250,0,,,
2.578000,-66.0000,0,,,
2.588000,-69.6250,0,,,
2.598000,-67.5000,0,,,
2.608000,-70.6250,0,,,
2.618000,-68.6250,0,,,
2.628000,-66.8750,0,,,
2.638000,-68.5000,0,,,
2.648000,-66.5000,0,,,
2.658000,-68.6250,0,,,
2.668000,-65.6250,0,,,
2.678000,-64.5000,0,,,
2.688000,-65.8750,0,,,
2.698000,-64.1250,0,,,
2.708000,-66.6250,0,,,
2.718000,-66.1250,0,,,
2.728000,-68.0000,0,,,
2.738000,-68.0000,0,,,
2.748000,-68.5000,0,,,
2.758000,-68.2500,0,,,
2.768000,-69.5000,0,,,
2.778000,-69.3750,0,,,
2.788000,-69.7500,0,,,
2.798000,-68.0000,0,,,
2.808000,-70.3750,0,,,
2.818000,-68.1250,0,,,
2.828000,-62.8750,0,,,
2.838000,-49.3750,0,,,
2.848000,-58.8750,0,,,
2.858000,-72.6250,0,,,
2.868000,-88.1250,0,,,
2.878000,-70.1250,0,,,
2.888000,-65.8750,0,,,
2.898000,-64.2500,0,,,
2.908000,-69.6250,0,,,
2.918000,-66.1250,0,,,
2.928000,-69.2500,0,,,
2.938000,-65.8750,0,,,
2.948000,-70.0000,0,,,
2.958000,-64.8750,0,,,
2.968000,-68.8750,0,,,
2.978000,-64.7500,0,,,
2.988000,-67.3750,0,,,
2.998000,-60.3750,0,,,
3.008000,-64.5000,0,,,
3.018000,-57.6250,0,,,
3.028000,-61.8750,0,,,
3.038000,-54.2500,0,,,
3.048000,-58.2500,0,,,
3.058000,-53.3750,0,,,
3.068000,-60.0000,0,,,
3.078000,-56.7500,0,,,
3.088000,-64.6250,0,,,
3.098000,-63.7500,0,,,
3.108000,-72.8750,0,,,
3.118000,-71.0000,0,,,
3.128000,-77.1250,0,,,
3.138000,-73.0000,0,,,
3.148000,-78.7500,0,,,
3.158000,-73.6250,0,,,
3.168000,-78.2500,0,,,
3.178000,-74.2500,0,,,
3.188000,-78.5000,0,,,
3.198000,-74.1250,0,,,
3.208000,-78.2500,0,,,
3.218000,-74.2500,0,,,
3.228000,-77.6250,0,,,
3.238000,-73.5000,0,,,
3.248000,-77.3750,0,,,
3.258000,-73.6250,0,,,
3.268000,-77.0000,0,,,
3.278000,-73.6250,0,,,
3.288000,-77.0000,0,,,
3.298000,-73.5000,0,,,
3.308000,-77.0000,0,,,
3.318000,-74.0000,0,,,
3.328000,-77.3750,0,,,
3.338000,-73.1250,0,,,
3.348000,-76.7500,0,,,
3.358000,-73.5000,0,,,
3.368000,-76.5000,0,,,
3.378000,-73.8750,0,,,
3.388000,-76.8750,0,,,
3.398000,-74.5000,0,,,
3.408000,-76.6250,0,,,
3.418000,-73.1250,0,,,
3.428000,-76.5000,0,,,
3.438000,-72.6250,0,,,
3.448000,-75.7500,0,,,
3.458000,-72.5000,0,,,
3.468000,-75.5000,0,,,
3.478000,-71.0000,0,,,
3.488000,-74.2500,0,,,
3.498000,-69.7500,0,,,
3.508000,-73.2500,0,,,
3.518000,-72.3750,0,,,
3.528000,-73.8750,0,,,
3.538000,-73.6250,0,,,
3.548000,-74.1250,0,,,
3.558000,-74.7500,0,,,
3.568000,-74.3750,0,,,
3.578000,-73.6250,0,,,
3.588000,-77.7500,0,,,
3.598000,-73.7500,0,,,
3.608000,-77.7500,0,,,
3.618000,-72.5000,0,,,
3.628000,-77.2500,0,,,
3.638000,-74.1250,0,,,
3.648000,-62.0000,0,,,
3.658000,-59.1250,0,,,
3.668000,-68.6250,0,,,
3.678000,-93.2500,0,,,
3.688000,-86.8750,0,,,
3.698000,-72.2500,0,,,
3.708000,-71.7500,0,,,
3.718000,-73.3750,0,,,
3.728000,-73.2500,0,,,
3.738000,-70.2500,0,,,
3.748000,-72.3750,0,,,
3.758000,-69.5000,0,,,
3.768000,-71.2500,0,,,
3.778000,-69.0000,0,,,
3.788000,-64.8750,0,,,
3.798000,-66.3750,0,,,
3.808000,-62.7500,0,,,
3.818000,-64.1250,0,,,
3.828000,-59.7500,0,,,
3.838000,-60.2500,0,,,
3.848000,-55.1250,0,,,
3.858000,-51.6250,0,,,
3.868000,-52.8750,0,,,
3.878000,-50.7500,0,,,
3.888000,-54.8750,0,,,
3.898000,-54.8750,0,,,
3.908000,-59.1250,0,,,
3.918000,-63.0000,0,,,
3.928000,-65.5000,0,,,
3.938000,-69.0000,0,,,
3.948000,-69.6250,0,,,
3.958000,-71.5000,0,,,
3.968000,-70.5000,0,,,
3.978000,-73.0000,0,,,
3.988000,-71.2500,0,,,
3.998000,-75.2500,0,,,
4.008000,-69.5000,0,,,
4.018000,-69.0000,0,,,
4.028000,-72.0000,0,,,
4.038000,-69.2500,0,,,
4.048000,-69.7500,0,,,
4.058000,-69.5000,0,,,
4.068000,-74.5000,0,,,
4.078000,-74.2500,0,,,
4.088000,-74.7500,0,,,
4.098000,-82.0000,0,,,
4.108000,-73.3750,0,,,
4.118000,-76.7500,0,,,
4.128000,-73.2500,0,,,
4.138000,-74.8750,0,,,
4.148000,-64.6250,0,,,
4.158000,-91.8750,0,,,
4.168000,-80.0000,0,,,
4.178000,-72.7500,0,,,
4.188000,-69.2500,0,,,
4.198000,-75.7500,0,,,
4.208000,-73.2500,0,,,
4.218000,-75.2500,0,,,
4.228000,-70.5000,0,,,
4.238000,-71.7500,0,,,
4.248000,-61.5000,0,,,
4.258000,-62.8750,0,,,
4.268000,-88.6250,0,,,
4.278000,-83.7500,0,,,
4.288000,-82.2500,0,,,
4.298000,-83.3750,0,,,
4.308000,-82.1250,0,,,
4.318000,-84.3750,0,,,
4.328000,-78.3750,0,,,
4.338000,-85.0000,0,,,
4.348000,-81.7500,0,,,
4.358000,-86.6250,0,,,
4.368000,-84.0000,0,,,
4.378000,-82.8750,0,,,
4.388000,-82.0000,0,,,
4.398000,-63.2500,0,,,
4.408000,-90.0000,0,,,
4.418000,-104.5000,0,,,
4.428000,-89.6250,0,,,
4.438000,-87.0000,0,,,
4.448000,-86.2500,0,,,
4.458000,-89.6250,0,,,
4.468000,-86.3750,0,,,
4.478000,-89.2500,0,,,
4.488000,-84.8750,0,,,
4.498000,-88.0000,0,,,
4.508000,-79.6250,0,,,
4.518000,-68.6250,0,,,
4.528000,-81.5000,0,,,
4.538000,-87.8750,0,,,
4.548000,-88.0000,0,,,
4.558000,-84.1250,0,,,
4.568000,-87.7500,0,,,
4.578000,-88.5000,0,,,
4.588000,-88.5000,0,,,
4.598000,-88.5000,0,,,
4.608000,-95.2500,0,,,
4.618000,-89.5000,0,,,
4.628000,-90.1250,0,,,
4.638000,-89.6250,0,,,
4.648000,-89.3750,0,,,
4.658000,-89.8750,0,,,
4.668000,-84.3750,0,,,
4.678000,-91.5000,0,,,
4.688000,-94.2500,0,,,
4.698000,-93.0000,0,,,
4.708000,-93.6250,0,,,
4.718000,-89.0000,0,,,
4.728000,-116.7500,0,,,
4.738000,-97.7500,0,,,
4.748000,-101.8750,0,,,
4.758000,-99.3750,0,,,
4.768000,-96.1250,0,,,
4.778000,-97.7500,0,,,
4.788000,-90.1250,0,,,
4.798000,-84.3750,0,,,
4.808000,-86.0000,0,,,
4.818000,-83.1250,0,,,
4.828000,-87.5000,0,,,
4.838000,-86.2500,0,,,
4.848000,-93.7500,0,,,
4.858000,-94.5000,0,,,
4.868000,-106.8750,0,,,
4.878000,-104.6250,0,,,
4.888000,-104.0000,0,,,
4.898000,-103.7500,0,,,
4.908000,-103.2500,0,,,
4.918000,-102.7500,0,,,
4.928000,-100.6250,0,,,
4.938000,-103.8750,0,,,
4.948000,-96.5000,0,,,
4.958000,-102.1250,0,,,
4.968000,-100.8750,0,,,
4.978000,-95.3750,0,,,
4.988000,-96.0000,0,,,
4.998000,-101.0000,0,,,
5.008000,-95.5000,0,,,
5.018000,-96.7500,0,,,
5.028000,-95.2500,0,,,
5.038000,-85.3750,0,,,
5.048000,-77.2500,0,,,
5.058000,-90.8750,0,,,
5.068000,-109.3750,0,,,
5.078000,-86.8750,0,,,
5.088000,-85.1250,0,,,
5.098000,-83.5000,0,,,
5.108000,-75.8750,0,,,
5.118000,-84.2500,0,,,
5.128000,-88.6250,0,,,
5.138000,-88.0000,0,,,
5.148000,-96.1250,0,,,
5.158000,-90.3750,0,,,
5.168000,-89.6250,0,,,
5.178000,-87.7500,0,,,
5.188000,-84.0000,0,,,
5.198000,-87.2500,0,,,
5.208000,-84.2500,0,,,
5.218000,-83.8750,0,,,
5.228000,-91.7500,0,,,
5.238000,-82.0000,0,,,
5.248000,-80.8750,0,,,
5.258000,-86.8750,0,,,
5.268000,-81.8750,0,,,
5.278000,-83.2500,0,,,
5.288000,-76.1250,0,,,
5.298000,-77.7500,0,,,
5.308000,-77.3750,0,,,
5.318000,-70.7500,0,,,
5.328000,-77.8750,0,,,
5.338000,-81.6250,0,,,
5.348000,-82.6250,0,,,
5.358000,-82.5000,0,,,
5.368000,-79.8750,0,,,
5.378000,-85.0000,0,,,
5.388000,-85.8750,0,,,
5.398000,-75.3750,0,,,
5.408000,-80.5000,0,,,
5.418000,-79.5000,0,,,
5.428000,-76.8750,0,,,
5.438000,-76.0000,0,,,
5.448000,-72.1250,0,,,
5.458000,-75.6250,0,,,
5.468000,-69.3750,0,,,
5.478000,-70.8750,0,,,
5.488000,-73.8750,0,,,
5.498000,-68.3750,0,,,
5.508000,-73.6250,0,,,
5.518000,-72.3750,0,,,
5.528000,-70.3750,0,,,
5.538000,-47.0000,0,,,
5.548000,-68.6250,0,,,
5.558000,-60.3750,0,,,
5.568000,-56.5000,0,,,
5.578000,-44.1250,0,,,
5.588000,-42.6250,0,,,
5.598000,-44.1250,0,,,
5.608000,-50.8750,0,,,
5.618000,-52.6250,0,,,
5.628000,-58.5000,0,,,
5.638000,-57.7500,0,,,
5.648000,-63.2500,0,,,
5.658000,-62.5000,0,,,
5.668000,-66.7500,0,,,
5.678000,-70.3750,0,,,
5.688000,-71.7500,0,,,
5.698000,-68.3750,0,,,
5.708000,-70.5000,0,,,
5.718000,-67.6250,0,,,
5.728000,-59.2500,0,,,
5.738000,-59.5000,0,,,
5.748000,-62.3750,0,,,
5.758000,-60.0000,0,,,
5.768000,-62.6250,0,,,
5.778000,-65.3750,0,,,
5.788000,-64.1250,0,,,
5.798000,-65.3750,0,,,
5.808000,-60.1250,0,,,
5.818000,-66.1250,0,,,
5.828000,-60.7500,0,,,
5.838000,-64.2500,0,,,
5.848000,-61.7500,0,,,
5.858000,-65.2500,0,,,
5.868000,-60.1250,0,,,
5.878000,-64.6250,0,,,
5.888000,-63.8750,0,,,
5.898000,-64.2500,0,,,
5.908000,-63.2500,0,,,
5.918000,-67.8750,0,,,
5.928000,-64.6250,0,,,
5.938000,-68.1250,0,,,
5.948000,-63.6250,0,,,
5.958000,-67.2500,0,,,
5.968000,-71.0000,0,,,
5.978000,-66.7500,0,,,
5.988000,-69.6250,0,,,
5.998000,-66.8750,0,,,
6.008000,-65.3750,0,,,
6.018000,-65.7500,0,,,
6.028000,-70.5000,0,,,
6.038000,-71.3750,0,,,
6.048000,-68.8750,0,,,
6.058000,-71.5000,0,,,
6.068000,-67.2500,0,,,
6.078000,-72.8750,0,,,
6.088000,-69.0000,0,,,
6.098000,-73.2500,0,,,
6.108000,-62.6250,0,,,
6.118000,-54.3750,0,,,
6.128000,-55.0000,0,,,
6.138000,-73.8750,0,,,
6.148000,-85.5000,0,,,
6.158000,-75.6250,0,,,
6.168000,-61.6250,0,,,
6.178000,-67.5000,0,,,
6.188000,-66.6250,0,,,
6.198000,-70.5000,0,,,
6.208000,-66.2500,0,,,
6.218000,-70.1250,0,,,
6.228000,-65.6250,0,,,
6.238000,-69.8750,0,,,
6.248000,-64.8750,0,,,
6.258000,-67.8750,0,,,
6.268000,-63.7500,3,76.86,-4.39,18.23
6.278000,-65.8750,3,76.86,-4.39,18.23
6.288000,-61.0000,3,76.86,-4.39,18.23
6.298000,-63.3750,3,76.86,-4.39,18.23
6.308000,-57.6250,3,76.86,-4.39,18.23
6.318000,-59.6250,3,76.86,-4.39,18.23
6.328000,-54.6250,3,76.86,-4.39,18.23
6.338000,-58.6250,3,76.86,-4.39,18.23
6.348000,-54.3750,3,76.86,-4.39,18.23
6.358000,-61.2500,3,76.86,-4.39,18.23
6.368000,-60.8750,3,76.86,-4.39,18.23
6.378000,-69.3750,3,76.86,-4.39,18.23
6.388000,-68.3750,3,76.86,-4.39,18.23
6.398000,-76.2500,3,76.86,-4.39,18.23
6.408000,-74.5000,3,76.86,-4.39,18.23
6.418000,-79.6250,3,76.86,-4.39,18.23
6.428000,-75.6250,3,76.86,-4.39,18.23
6.438000,-81.1250,3,76.86,-4.39,18.23
6.448000,-76.7500,3,76.86,-4.39,18.23
6.458000,-81.6250,3,76.86,-4.39,18.23
6.468000,-76.6250,3,76.86,-4.39,18.23
6.478000,-81.7500,3,76.86,-4.39,18.23
6.488000,-77.2500,3,76.86,-4.39,18.23
6.498000,-81.0000,3,76.86,-4.39,18.23
6.508000,-76.3750,3,76.86,-4.39,18.23
6.518000,-80.6250,3,76.86,-4.39,18.23
6.528000,-76.0000,3,76.86,-4.39,18.23
6.538000,-80.2500,3,76.86,-4.39,18.23
6.548000,-77.5000,3,76.86,-4.39,18.23
6.558000,-81.1250,3,76.86,-4.39,18.23
6.568000,-77.6250,3,76.86,-4.39,18.23
6.578000,-81.3750,3,76.86,-4.39,18.23
6.588000,-78.0000,3,76.86,-4.39,18.23
6.598000,-80.7500,3,76.86,-4.39,18.23
6.608000,-78.6250,3,76.86,-4.39,18.23
6.618000,-81.0000,3,76.86,-4.39,18.23
6.628000,-79.0000,3,76.86,-4.39,18.23
6.638000,-81.7500,3,76.86,-4.39,18.23
6.648000,-81.6250,3,76.86,-4.39,18.23
6.658000,-81.3750,3,76.86,-4.39,18.23
6.668000,-81.2500,3,76.86,-4.39,18.23
6.678000,-81.8750,3,76.86,-4.39,18.23
6.688000,-80.7500,3,76.86,-4.39,18.23
6.698000,-85.3750,3,76.86,-4.39,18.23
6.708000,-80.8750,3,76.86,-4.39,18.23
6.718000,-85.0000,3,76.86,-4.39,18.23
6.728000,-80.5000,3,76.86,-4.39,18.23
6.738000,-84.5000,3,76.86,-4.39,18.23
6.748000,-87.0000,3,76.86,-4.39,18.23
6.758000,-84.1250,3,76.86,-4.39,18.23
6.768000,-86.5000,3,76.86,-4.39,18.23
6.778000,-83.1250,3,76.86,-4.39,18.23
6.788000,-85.5000,3,76.86,-4.39,18.23
6.798000,-82.0000,3,76.86,-4.39,18.23
6.808000,-84.2500,3,76.86,-4.39,18.23
6.818000,-89.1250,3,76.86,-4.39,18.23
6.828000,-86.3750,3,76.86,-4.39,18.23
6.838000,-89.8750,3,76.86,-4.39,18.23
6.848000,-86.3750,3,76.86,-4.39,18.23
6.858000,-91.3750,3,76.86,-4.39,18.23
6.868000,-88.0000,3,76.86,-4.39,18.23
6.878000,-91.2500,3,76.86,-4.39,18.23
6.888000,-88.2500,3,76.86,-4.39,18.23
6.898000,-91.2500,3,76.86,-4.39,18.23
6.908000,-88.6250,3,76.86,-4.39,18.23
6.918000,-87.0000,3,76.86,-4.39,18.23
6.928000,-86.6250,3,76.86,-4.39,18.23
6.938000,-77.2500,3,76.86,-4.39,18.23
6.948000,-68.6250,3,76.86,-4.39,18.23
6.958000,-75.5000,3,76.86,-4.39,18.23
6.968000,-94.8750,3,76.86,-4.39,18.23
6.978000,-102.6250,3,76.86,-4.39,18.23
6.988000,-81.3750,3,76.86,-4.39,18.23
6.998000,-81.8750,3,76.86,-4.39,18.23
7.008000,-79.3750,3,76.86,-4.39,18.23
7.018000,-78.7500,3,76.86,-4.39,18.23
7.028000,-80.1250,3,76.86,-4.39,18.23
7.038000,-78.3750,3,76.86,-4.39,18.23
7.048000,-79.7500,3,76.86,-4.39,18.23
7.058000,-77.3750,3,76.86,-4.39,18.23
7.068000,-78.3750,3,76.86,-4.39,18.23
7.078000,-75.8750,3,76.86,-4.39,18.23
7.088000,-75.2500,3,76.86,-4.39,18.23
7.098000,-74.0000,3,76.86,-4.39,18.23
7.108000,-73.1250,3,76.86,-4.39,18.23
7.118000,-71.0000,3,76.86,-4.39,18.23
7.128000,-69.3750,3,76.86,-4.39,18.23
7.138000,-64.0000,3,76.86,-4.39,18.23
7.148000,-66.0000,3,76.86,-4.39,18.23
7.158000,-61.3750,3,76.86,-4.39,18.23
7.168000,-63.8750,3,76.86,-4.39,18.23
7.178000,-64.1250,3,76.86,-4.39,18.23
7.188000,-68.7500,3,76.86,-4.39,18.23
7.198000,-70.0000,3,76.86,-4.39,18.23
7.208000,-75.7500,3,76.86,-4.39,18.23
7.218000,-76.2500,3,76.86,-4.39,18.23
7.228000,-82.2500,3,76.86,-4.39,18.23
7.238000,-80.1250,3,76.86,-4.39,18.23
7.248000,-84.0000,3,76.86,-4.39,18.23
7.258000,-81.7500,3,76.86,-4.39,18.23
7.268000,-84.5000,3,76.86,-4.39,18.23
7.278000,-81.3750,3,76.86,-4.39,18.23
7.288000,-85.0000,3,76.86,-4.39,18.23
7.298000,-81.6250,3,76.86,-4.39,18.23
7.308000,-85.0000,3,76.86,-4.39,18.23
7.318000,-80.7500,3,76.86,-4.39,18.23
7.328000,-83.5000,3,76.86,-4.39,18.23
7.338000,-79.6250,3,76.86,-4.39,18.23
7.348000,-83.5000,3,76.86,-4.39,18.23
7.358000,-79.2500,3,76.86,-4.39,18.23
7.368000,-83.0000,3,76.86,-4.39,18.23
7.378000,-79.3750,3,76.86,-4.39,18.23
7.388000,-83.5000,3,76.86,-4.39,18.23
7.398000,-79.3750,3,76.86,-4.39,18.23
7.408000,-83.5000,3,76.86,-4.39,18.23
7.418000,-79.3750,3,76.86,-4.39,18.23
7.428000,-83.8750,3,76.86,-4.39,18.23
7.438000,-79.6250,3,76.86,-4.39,18.23
7.448000,-83.6250,3,76.86,-4.39,18.23
7.458000,-78.3750,3,76.86,-4.39,18.23
7.468000,-84.0000,3,76.86,-4.39,18.23
7.478000,-79.0000,3,76.86,-4.39,18.23
7.488000,-84.6250,3,76.86,-4.39,18.23
7.498000,-79.5000,3,76.86,-4.39,18.23
7.508000,-84.7500,3,76.86,-4.39,18.23
7.518000,-79.6250,3,76.86,-4.39,18.23
7.528000,-85.0000,3,76.86,-4.39,18.23
7.538000,-79.3750,3,76.86,-4.39,18.23
7.548000,-85.0000,3,76.86,-4.39,18.23
7.558000,-80.0000,3,76.86,-4.39,18.23
7.568000,-85.1250,3,76.86,-4.39,18.23
7.578000,-79.3750,3,76.86,-4.39,18.23
7.588000,-85.6250,3,76.86,-4.39,18.23
7.598000,-80.1250,3,76.86,-4.39,18.23
7.608000,-85.3750,3,76.86,-4.39,18.23
7.618000,-80.0000,3,76.86,-4.39,18.23
7.628000,-85.3750,3,76.86,-4.39,18.23
7.638000,-79.6250,3,76.86,-4.39,18.23
7.648000,-84.1250,3,76.86,-4.39,18.23
7.658000,-79.8750,3,76.86,-4.39,18.23
7.668000,-83.3750,3,76.86,-4.39,18.23
7.678000,-79.3750,3,76.86,-4.39,18.23
7.688000,-84.2500,3,76.86,-4.39,18.23
7.698000,-80.2500,3,76.86,-4.39,18.23
7.708000,-84.8750,3,76.86,-4.39,18.23
7.718000,-81.7500,3,76.86,-4.39,18.23
7.728000,-85.0000,3,76.86,-4.39,18.23
7.738000,-82.1250,3,76.86,-4.39,18.23
7.748000,-85.5000,3,76.86,-4.39,18.23
7.758000,-83.1250,3,76.86,-4.39,18.23
7.768000,-85.2500,3,76.86,-4.39,18.23
7.778000,-83.3750,3,76.86,-4.39,18.23
7.788000,-85.6250,3,76.86,-4.39,18.23
7.798000,-80.6250,3,76.86,-4.39,18.23
7.808000,-74.3750,3,76.86,-4.39,18.23
7.818000,-60.5000,3,76.86,-4.39,18.23
7.828000,-73.7500,3,76.86,-4.39,18.23
7.838000,-93.8750,3,76.86,-4.39,18.23
7.848000,-99.5000,3,76.86,-4.39,18.23
7.858000,-80.5000,3,76.86,-4.39,18.23
7.868000,-78.8750,3,76.86,-4.39,18.23
7.878000,-79.0000,3,76.86,-4.39,18.23
7.888000,-80.6250,3,76.86,-4.39,18.23
7.898000,-78.3750,3,76.86,-4.39,18.23
7.908000,-79.5000,3,76.86,-4.39,18.23
7.918000,-77.0000,3,76.86,-4.39,18.23
7.928000,-81.7500,3,76.86,-4.39,18.23
7.938000,-76.0000,3,76.86,-4.39,18.23
7.948000,-79.6250,3,76.86,-4.39,18.23
7.958000,-73.6250,3,76.86,-4.39,18.23
7.968000,-80.6250,3,76.86,-4.39,18.23
7.978000,-65.3750,3,76.86,-4.39,18.23
7.988000,-65.1250,3,76.86,-4.39,18.23
7.998000,-78.8750,3,76.86,-4.39,18.23
8.008000,-82.0000,3,76.86,-4.39,18.23
8.018000,-86.7500,3,76.86,-4.39,18.23
8.028000,-87.7500,3,76.86,-4.39,18.23
8.038000,-85.8750,3,76.86,-4.39,18.23
8.048000,-87.8750,3,76.86,-4.39,18.23
8.058000,-87.6250,3,76.86,-4.39,18.23
8.068000,-88.6250,3,76.86,-4.39,18.23
8.078000,-87.3750,3,76.86,-4.39,18.23
8.088000,-93.8750,3,76.86,-4.39,18.23
8.098000,-85.8750,3,76.86,-4.39,18.23
8.108000,-90.8750,3,76.86,-4.39,18.23
8.118000,-91.3750,3,76.86,-4.39,18.23
8.128000,-89.3750,3,76.86,-4.39,18.23
8.138000,-89.1250,3,76.86,-4.39,18.23
8.148000,-85.7500,3,76.86,-4.39,18.23
8.158000,-89.5000,3,76.86,-4.39,18.23
8.168000,-85.3750,3,76.86,-4.39,18.23
8.178000,-89.1250,3,76.86,-4.39,18.23
8.188000,-90.2500,3,76.86,-4.39,18.23
8.198000,-89.0000,3,76.86,-4.39,18.23
8.208000,-93.5000,3,76.86,-4.39,18.23
8.218000,-93.7500,3,76.86,-4.39,18.23
8.228000,-89.2500,3,76.86,-4.39,18.23
8.238000,-86.1250,3,76.86,-4.39,18.23
8.248000,-87.7500,3,76.86,-4.39,18.23
8.258000,-80.6250,3,76.86,-4.39,18.23
8.268000,-88.6250,3,76.86,-4.39,18.23
8.278000,-90.5000,3,76.86,-4.39,18.23
8.288000,-94.1250,3,76.86,-4.39,18.23
8.298000,-87.6250,3,76.86,-4.39,18.23
8.308000,-87.3750,3,76.86,-4.39,18.23
8.318000,-88.0000,3,76.86,-4.39,18.23
8.328000,-85.5000,3,76.86,-4.39,18.23
8.338000,-88.1250,3,76.86,-4.39,18.23
8.348000,-88.6250,3,76.86,-4.39,18.23
8.358000,-87.1250,3,76.86,-4.39,18.23
8.368000,-89.2500,3,76.86,-4.39,18.23
8.378000,-88.0000,3,76.86,-4.39,18.23
8.388000,-89.1250,3,76.86,-4.39,18.23
8.398000,-86.7500,3,76.86,-4.39,18.23
8.408000,-89.1250,3,76.86,-4.39,18.23
8.418000,-85.2500,3,76.86,-4.39,18.23
8.428000,-88.6250,3,76.86,-4.39,18.23
8.438000,-85.6250,3,76.86,-4.39,18.23
8.448000,-88.8750,3,76.86,-4.39,18.23
8.458000,-83.8750,3,76.86,-4.39,18.23
8.468000,-87.2500,3,76.86,-4.39,18.23
8.478000,-84.7500,3,76.86,-4.39,18.23
8.488000,-88.6250,3,76.86,-4.39,18.23
8.498000,-84.6250,3,76.86,-4.39,18.23
8.508000,-74.2500,3,76.86,-4.39,18.23
8.518000,-81.0000,3,76.86,-4.39,18.23
8.528000,-82.1250,3,76.86,-4.39,18.23
8.538000,-77.7500,3,76.86,-4.39,18.23
8.548000,-69.3750,3,76.86,-4.39,18.23
8.558000,-82.0000,3,76.86,-4.39,18.23
8.568000,-87.8750,3,76.86,-4.39,18.23
8.578000,-92.3750,3,76.86,-4.39,18.23
8.588000,-92.7500,3,76.86,-4.39,18.23
8.598000,-87.3750,3,76.86,-4.39,18.23
8.608000,-87.5000,3,76.86,-4.39,18.23
8.618000,-85.6250,3,76.86,-4.39,18.23
8.628000,-82.2500,3,76.86,-4.39,18.23
8.638000,-81.8750,3,76.86,-4.39,18.23
8.648000,-86.7500,3,76.86,-4.39,18.23
8.658000,-90.2500,3,76.86,-4.39,18.23
8.668000,-83.5000,3,76.86,-4.39,18.23
8.678000,-86.0000,3,76.86,-4.39,18.23
8.688000,-98.5000,3,76.86,-4.39,18.23
8.698000,-81.2500,3,76.86,-4.39,18.23
8.708000,-78.8750,3,76.86,-4.39,18.23
8.718000,-79.7500,3,76.86,-4.39,18.23
8.728000,-76.7500,3,76.86,-4.39,18.23
8.738000,-73.6250,3,76.86,-4.39,18.23
8.748000,-69.6250,3,76.86,-4.39,18.23
8.758000,-63.6250,3,76.86,-4.39,18.23
8.768000,-68.6250,3,76.86,-4.39,18.23
8.778000,-74.6250,3,76.86,-4.39,18.23
8.788000,-78.0000,3,76.86,-4.39,18.23
8.798000,-84.7500,3,76.86,-4.39,18.23
8.808000,-92.3750,3,76.86,-4.39,18.23
8.818000,-83.6250,3,76.86,-4.39,18.23
8.828000,-88.2500,3,76.86,-4.39,18.23
8.838000,-81.8750,3,76.86,-4.39,18.23
8.848000,-87.7500,3,76.86,-4.39,18.23
8.858000,-85.7500,3,76.86,-4.39,18.23
8.868000,-81.2500,3,76.86,-4.39,18.23
8.878000,-83.8750,3,76.86,-4.39,18.23
8.888000,-85.5000,3,76.86,-4.39,18.23
8.898000,-84.1250,3,76.86,-4.39,18.23
8.908000,-84.8750,3,76.86,-4.39,18.23
8.918000,-81.7500,3,76.86,-4.39,18.23
8.928000,-84.2500,3,76.86,-4.39,18.23
8.938000,-80.7500,3,76.86,-4.39,18.23
8.948000,-78.3750,3,76.86,-4.39,18.23
8.958000,-79.6250,3,76.86,-4.39,18.23
8.968000,-89.8750,3,76.86,-4.39,18.23
8.978000,-85.7500,3,76.86,-4.39,18.23
8.988000,-83.3750,3,76.86,-4.39,18.23
8.998000,-82.5000,3,76.86,-4.39,18.23
9.008000,-66.0000,3,76.86,-4.39,18.23
9.018000,-86.0000,3,76.86,-4.39,18.23
9.028000,-70.2500,3,76.86,-4.39,18.23
9.038000,-68.5000,3,76.86,-4.39,18.23
9.048000,-64.8750,3,76.86,-4.39,18.23
9.058000,-60.0000,3,76.86,-4.39,18.23
9.068000,-62.6250,3,76.86,-4.39,18.23
9.078000,-63.8750,3,76.86,-4.39,18.23
9.088000,-71.5000,3,76.86,-4.39,18.23
9.098000,-79.6250,3,76.86,-4.39,18.23
9.108000,-75.7500,3,76.86,-4.39,18.23
9.118000,-76.2500,3,76.86,-4.39,18.23
9.128000,-79.6250,3,76.86,-4.39,18.23
9.138000,-75.6250,3,76.86,-4.39,18.23
9.148000,-79.0000,3,76.86,-4.39,18.23
9.158000,-75.0000,3,76.86,-4.39,18.23
9.168000,-85.5000,3,76.86,-4.39,18.23
9.178000,-79.0000,3,76.86,-4.39,18.23
9.188000,-79.2500,3,76.86,-4.39,18.23
9.198000,-74.2500,3,76.86,-4.39,18.23
9.208000,-76.3750,3,76.86,-4.39,18.23
9.218000,-77.0000,3,76.86,-4.39,18.23
9.228000,-83.8750,3,76.86,-4.39,18.23
9.238000,-77.1250,3,76.86,-4.39,18.23
9.248000,-69.0000,3,76.86,-4.39,18.23
9.258000,-64.0000,3,76.86,-4.39,18.23
9.268000,-61.5000,3,76.86,-4.39,18.23
9.278000,-79.0000,3,76.86,-4.39,18.23
9.288000,-75.6250,3,76.86,-4.39,18.23
9.298000,-69.6250,3,76.86,-4.39,18.23
9.308000,-61.0000,3,76.86,-4.39,18.23
9.318000,-70.7500,3,76.86,-4.39,18.23
9.328000,-70.0000,3,76.86,-4.39,18.23
9.338000,-78.1250,3,76.86,-4.39,18.23
9.348000,-80.5000,3,76.86,-4.39,18.23
9.358000,-77.6250,3,76.86,-4.39,18.23
9.368000,-80.3750,3,76.86,-4.39,18.23
9.378000,-82.8750,3,76.86,-4.39,18.23
9.388000,-81.8750,3,76.86,-4.39,18.23
9.398000,-83.6250,3,76.86,-4.39,18.23
9.408000,-80.0000,3,76.86,-4.39,18.23
9.418000,-80.3750,3,76.86,-4.39,18.23
9.428000,-82.3750,3,76.86,-4.39,18.23
9.438000,-85.6250,3,76.86,-4.39,18.23
9.448000,-82.8750,3,76.86,-4.39,18.23
9.458000,-82.6250,3,76.86,-4.39,18.23
9.468000,-78.2500,3,76.86,-4.39,18.23
9.478000,-81.0000,3,76.86,-4.39,18.23
9.488000,-83.8750,3,76.86,-4.39,18.23
9.498000,-85.2500,3,76.86,-4.39,18.23
9.508000,-81.3750,3,76.86,-4.39,18.23
9.518000,-74.6250,3,76.86,-4.39,18.23
9.528000,-71.3750,3,76.86,-4.39,18.23
9.538000,-72.8750,3,76.86,-4.39,18.23
9.548000,-74.1250,3,76.86,-4.39,18.23
9.558000,-65.2500,3,76.86,-4.39,18.23
9.568000,-65.5000,3,76.86,-4.39,18.23
9.578000,-63.6250,3,76.86,-4.39,18.23
9.588000,-63.3750,3,76.86,-4.39,18.23
9.598000,-70.2500,3,76.86,-4.39,18.23
9.608000,-70.1250,3,76.86,-4.39,18.23
9.618000,-77.8750,3,76.86,-4.39,18.23
9.628000,-76.1250,3,76.86,-4.39,18.23
9.638000,-85.8750,3,76.86,-4.39,18.23
9.648000,-81.8750,3,76.86,-4.39,18.23
9.658000,-76.7500,3,76.86,-4.39,18.23
9.668000,-77.8750,3,76.86,-4.39,18.23
9.678000,-77.3750,3,76.86,-4.39,18.23
9.688000,-76.7500,3,76.86,-4.39,18.23
9.698000,-80.6250,3,76.86,-4.39,18.23
9.708000,-75.3750,3,76.86,-4.39,18.23
9.718000,-72.0000,3,76.86,-4.39,18.23
9.728000,-76.3750,3,76.86,-4.39,18.23
9.738000,-70.6250,3,76.86,-4.39,18.23
9.748000,-75.2500,3,76.86,-4.39,18.23
9.758000,-70.0000,3,76.86,-4.39,18.23
9.768000,-68.8750,3,76.86,-4.39,18.23
9.778000,-74.2500,3,76.86,-4.39,18.23
9.788000,-72.3750,3,76.86,-4.39,18.23
9.798000,-75.2500,3,76.86,-4.39,18.23
9.808000,-72.8750,3,76.86,-4.39,18.23
9.818000,-76.1250,3,76.86,-4.39,18.23
9.828000,-72.8750,3,76.86,-4.39,18.23
9.838000,-76.1250,3,76.86,-4.39,18.23
9.848000,-76.7500,3,76.86,-4.39,18.23
9.858000,-73.2500,3,76.86,-4.39,18.23
9.868000,-62.7500,3,76.86,-4.39,18.23
9.878000,-56.1250,3,76.86,-4.39,18.23
9.888000,-62.1250,3,76.86,-4.39,18.23
9.898000,-87.7500,3,76.86,-4.39,18.23
9.908000,-83.2500,3,76.86,-4.39,18.23
9.918000,-69.6250,3,76.86,-4.39,18.23
9.928000,-65.2500,3,76.86,-4.39,18.23
9.938000,-71.7500,3,76.86,-4.39,18.23
9.948000,-72.3750,3,76.86,-4.39,18.23
9.958000,-77.1250,3,76.86,-4.39,18.23
9.968000,-74.1250,3,76.86,-4.39,18.23
9.978000,-71.7500,3,76.86,-4.39,18.23
9.988000,-69.1250,3,76.86,-4.39,18.23
9.998000,-67.1250,3,76.86,-4.39,18.23
10.008000,-67.0000,3,76.86,-4.39,18.23
10.018000,-65.6250,3,76.86,-4.39,18.23
10.028000,-65.2500,3,76.86,-4.39,18.23
10.038000,-61.7500,3,76.86,-4.39,18.23
10.048000,-61.2500,3,76.86,-4.39,18.23
10.058000,-56.8750,3,76.86,-4.39,18.23
10.068000,-56.7500,3,76.86,-4.39,18.23
10.078000,-54.8750,3,76.86,-4.39,18.23
10.088000,-56.6250,3,76.86,-4.39,18.23
10.098000,-54.3750,3,76.86,-4.39,18.23
10.108000,-61.6250,3,76.86,-4.39,18.23
10.118000,-59.1250,3,76.86,-4.39,18.23
10.128000,-74.5000,3,76.86,-4.39,18.23
10.138000,-75.3750,3,76.86,-4.39,18.23
10.148000,-82.5000,3,76.86,-4.39,18.23
10.158000,-81.1250,3,76.86,-4.39,18.23
10.168000,-82.1250,3,76.86,-4.39,18.23
10.178000,-80.2500,3,76.86,-4.39,18.23
10.188000,-81.8750,3,76.86,-4.39,18.23
10.198000,-84.1250,3,76.86,-4.39,18.23
10.208000,-81.0000,3,76.86,-4.39,18.23
10.218000,-83.0000,3,76.86,-4.39,18.23
10.228000,-80.1250,3,76.86,-4.39,18.23
10.238000,-83.0000,3,76.86,-4.39,18.23
10.248000,-80.2500,3,76.86,-4.39,18.23
10.258000,-82.3750,3,76.86,-4.39,18.23
10.268000,-80.0000,3,76.86,-4.39,18.23
10.278000,-77.2500,3,76.86,-4.39,18.23
10.288000,-81.3750,3,76.86,-4.39,18.23
10.298000,-78.5000,3,76.86,-4.39,18.23
10.308000,-81.8750,3,76.86,-4.39,18.23
10.318000,-79.2500,3,76.86,-4.39,18.23
10.328000,-77.5000,3,76.86,-4.39,18.23
10.338000,-79.3750,5,89.02,-2.83,17.73
10.348000,-78.3750,5,89.02,-2.83,17.73
10.358000,-80.6250,5,89.02,-2.83,17.73
10.368000,-78.2500,5,89.02,-2.83,17.73
10.378000,-77.1250,5,89.02,-2.83,17.73
10.388000,-79.2500,5,89.02,-2.83,17.73
10.398000,-77.6250,5,89.02,-2.83,17.73
10.408000,-79.1250,5,89.02,-2.83,17.73
10.418000,-78.2500,5,89.02,-2.83,17.73
10.428000,-78.1250,5,89.02,-2.83,17.73
10.438000,-78.6250,5,89.02,-2.83,17.73
10.448000,-78.3750,5,89.02,-2.83,17.73
10.458000,-78.3750,5,89.02,-2.83,17.73
10.468000,-78.3750,5,89.02,-2.83,17.73
10.478000,-76.5000,5,89.02,-2.83,17.73
10.488000,-78.6250,5,89.02,-2.83,17.73
10.498000,-76.8750,5,89.02,-2.83,17.73
10.508000,-78.2500,5,89.02,-2.83,17.73
10.518000,-76.2500,5,89.02,-2.83,17.73
10.528000,-78.6250,5,89.02,-2.83,17.73
10.538000,-74.7500,5,89.02,-2.83,17.73
10.548000,-77.3750,5,89.02,-2.83,17.73
10.558000,-75.6250,5,89.02,-2.83,17.73
10.568000,-79.5000,5,89.02,-2.83,17.73
10.578000,-75.6250,5,89.02,-2.83,17.73
10.588000,-80.5000,5,89.02,-2.83,17.73
10.598000,-76.2500,5,89.02,-2.83,17.73
10.608000,-80.5000,5,89.02,-2.83,17.73
10.618000,-76.7500,5,89.02,-2.83,17.73
10.628000,-80.8750,5,89.02,-2.83,17.73
10.638000,-76.1250,5,89.02,-2.83,17.73
10.648000,-81.2500,5,89.02,-2.83,17.73
10.658000,-77.1250,5,89.02,-2.83,17.73
10.668000,-79.6250,5,89.02,-2.83,17.73
10.678000,-70.8750,5,89.02,-2.83,17.73
10.688000,-61.5000,5,89.02,-2.83,17.73
10.698000,-62.6250,5,89.02,-2.83,17.73
10.708000,-84.0000,5,89.02,-2.83,17.73
10.718000,-91.8750,5,89.02,-2.83,17.73
10.728000,-82.2500,5,89.02,-2.83,17.73
10.738000,-69.6250,5,89.02,-2.83,17.73
10.748000,-75.6250,5,89.02,-2.83,17.73
10.758000,-71.7500,5,89.02,-2.83,17.73
10.768000,-76.5000,5,89.02,-2.83,17.73
10.778000,-71.8750,5,89.02,-2.83,17.73
10.788000,-76.1250,5,89.02,-2.83,17.73
10.798000,-71.3750,5,89.02,-2.83,17.73
10.808000,-75.0000,5,89.02,-2.83,17.73
10.818000,-69.8750,5,89.02,-2.83,17.73
10.828000,-73.7500,5,89.02,-2.83,17.73
10.838000,-67.3750,5,89.02,-2.83,17.73
10.848000,-70.6250,5,89.02,-2.83,17.73
10.858000,-65.1250,5,89.02,-2.83,17.73
10.868000,-67.3750,5,89.02,-2.83,17.73
10.878000,-61.7500,5,89.02,-2.83,17.73
10.888000,-64.0000,5,89.02,-2.83,17.73
10.898000,-58.6250,5,89.02,-2.83,17.73
10.908000,-61.7500,5,89.02,-2.83,17.73
10.918000,-59.1250,5,89.02,-2.83,17.73
10.928000,-65.1250,5,89.02,-2.83,17.73
10.938000,-65.7500,5,89.02,-2.83,17.73
10.948000,-73.0000,5,89.02,-2.83,17.73
10.958000,-73.2500,5,89.02,-2.83,17.73
10.968000,-79.3750,5,89.02,-2.83,17.73
10.978000,-77.3750,5,89.02,-2.83,17.73
10.988000,-82.3750,5,89.02,-2.83,17.73
10.998000,-79.5000,5,89.02,-2.83,17.73
11.008000,-83.5000,5,89.02,-2.83,17.73
11.018000,-80.1250,5,89.02,-2.83,17.73
11.028000,-84.1250,5,89.02,-2.83,17.73
11.038000,-79.7500,5,89.02,-2.83,17.73
11.048000,-83.8750,5,89.02,-2.83,17.73
11.058000,-79.5000,5,89.02,-2.83,17.73
11.068000,-82.7500,5,89.02,-2.83,17.73
11.078000,-79.3750,5,89.02,-2.83,17.73
11.088000,-83.2500,5,89.02,-2.83,17.73
11.098000,-78.5000,5,89.02,-2.83,17.73
11.108000,-82.2500,5,89.02,-2.83,17.73
11.118000,-78.8750,5,89.02,-2.83,17.73
11.128000,-82.0000,5,89.02,-2.83,17.73
11.138000,-78.3750,5,89.02,-2.83,17.73
11.148000,-82.5000,5,89.02,-2.83,17.73
11.158000,-78.8750,5,89.02,-2.83,17.73
11.168000,-82.5000,5,89.02,-2.83,17.73
11.178000,-79.7500,5,89.02,-2.83,17.73
11.188000,-83.0000,5,89.02,-2.83,17.73
11.198000,-79.3750,5,89.02,-2.83,17.73
11.208000,-83.1250,5,89.02,-2.83,17.73
11.218000,-83.2500,5,89.02,-2.83,17.73
11.228000,-83.1250,5,89.02,-2.83,17.73
11.238000,-82.7500,5,89.02,-2.83,17.73
11.248000,-82.8750,5,89.02,-2.83,17.73
11.258000,-82.7500,5,89.02,-2.83,17.73
11.268000,-86.6250,5,89.02,-2.83,17.73
11.278000,-82.3750,5,89.02,-2.83,17.73
11.288000,-85.3750,5,89.02,-2.83,17.73
11.298000,-82.2500,5,89.02,-2.83,17.73
11.308000,-85.8750,5,89.02,-2.83,17.73
11.318000,-88.7500,5,89.02,-2.83,17.73
11.328000,-85.3750,5,89.02,-2.83,17.73
11.338000,-88.3750,5,89.02,-2.83,17.73
11.348000,-84.8750,5,89.02,-2.83,17.73
11.358000,-87.7500,5,89.02,-2.83,17.73
11.368000,-84.7500,5,89.02,-2.83,17.73
11.378000,-86.5000,5,89.02,-2.83,17.73
11.388000,-87.8750,5,89.02,-2.83,17.73
11.398000,-85.2500,5,89.02,-2.83,17.73
11.408000,-87.1250,5,89.02,-2.83,17.73
11.418000,-86.1250,5,89.02,-2.83,17.73
11.428000,-89.7500,5,89.02,-2.83,17.73
11.438000,-87.1250,5,89.02,-2.83,17.73
11.448000,-91.1250,5,89.02,-2.83,17.73
11.458000,-87.8750,5,89.02,-2.83,17.73
11.468000,-90.8750,5,89.02,-2.83,17.73
11.478000,-88.2500,5,89.02,-2.83,17.73
11.488000,-86.5000,5,89.02,-2.83,17.73
11.498000,-89.1250,5,89.02,-2.83,17.73
11.508000,-87.2500,5,89.02,-2.83,17.73
11.518000,-89.6250,5,89.02,-2.83,17.73
11.528000,-84.6250,5,89.02,-2.83,17.73
11.538000,-73.2500,5,89.02,-2.83,17.73
11.548000,-66.2500,5,89.02,-2.83,17.73
11.558000,-73.8750,5,89.02,-2.83,17.73
11.568000,-97.2500,5,89.02,-2.83,17.73
11.578000,-97.1250,5,89.02,-2.83,17.73
11.588000,-79.5000,5,89.02,-2.83,17.73
11.598000,-78.1250,5,89.02,-2.83,17.73
11.608000,-78.3750,5,89.02,-2.83,17.73
11.618000,-79.2500,5,89.02,-2.83,17.73
11.628000,-77.8750,5,89.02,-2.83,17.73
11.638000,-79.0000,5,89.02,-2.83,17.73
11.648000,-77.7500,5,89.02,-2.83,17.73
11.658000,-77.5000,5,89.02,-2.83,17.73
11.668000,-76.7500,5,89.02,-2.83,17.73
11.678000,-76.2500,5,89.02,-2.83,17.73
11.688000,-72.5000,5,89.02,-2.83,17.73
11.698000,-74.1250,5,89.02,-2.83,17.73
11.708000,-70.1250,5,89.02,-2.83,17.73
11.718000,-71.1250,5,89.02,-2.83,17.73
11.728000,-65.8750,5,89.02,-2.83,17.73
11.738000,-67.1250,5,89.02,-2.83,17.73
11.748000,-61.5000,5,89.02,-2.83,17.73
11.758000,-64.5000,5,89.02,-2.83,17.73
11.768000,-61.0000,5,89.02,-2.83,17.73
11.778000,-65.3750,5,89.02,-2.83,17.73
11.788000,-65.1250,5,89.02,-2.83,17.73
11.798000,-72.1250,5,89.02,-2.83,17.73
11.808000,-72.5000,5,89.02,-2.83,17.73
11.818000,-79.8750,5,89.02,-2.83,17.73
11.828000,-78.5000,5,89.02,-2.83,17.73
11.838000,-84.0000,5,89.02,-2.83,17.73
11.848000,-81.0000,5,89.02,-2.83,17.73
11.858000,-86.0000,5,89.02,-2.83,17.73
11.868000,-81.3750,5,89.02,-2.83,17.73
11.878000,-86.5000,5,89.02,-2.83,17.73
11.888000,-82.2500,5,89.02,-2.83,17.73
11.898000,-86.2500,5,89.02,-2.83,17.73
11.908000,-81.6250,5,89.02,-2.83,17.73
11.918000,-85.8750,5,89.02,-2.83,17.73
11.928000,-80.8750,5,89.02,-2.83,17.73
11.938000,-85.3750,5,89.02,-2.83,17.73
11.948000,-80.7500,5,89.02,-2.83,17.73
11.958000,-84.7500,5,89.02,-2.83,17.73
11.968000,-81.0000,5,89.02,-2.83,17.73
11.978000,-84.3750,5,89.02,-2.83,17.73
11.988000,-80.3750,5,89.02,-2.83,17.73
11.998000,-84.7500,5,89.02,-2.83,17.73
12.008000,-80.8750,5,89.02,-2.83,17.73
12.018000,-84.6250,5,89.02,-2.83,17.73
12.028000,-80.8750,5,89.02,-2.83,17.73
12.038000,-85.3750,5,89.02,-2.83,17.73
12.048000,-81.7500,5,89.02,-2.83,17.73
12.058000,-86.0000,5,89.02,-2.83,17.73
12.068000,-81.8750,5,89.02,-2.83,17.73
12.078000,-86.2500,5,89.02,-2.83,17.73
12.088000,-84.2500,5,89.02,-2.83,17.73
12.098000,-86.2500,5,89.02,-2.83,17.73
12.108000,-82.8750,5,89.02,-2.83,17.73
12.118000,-81.8750,5,89.02,-2.83,17.73
12.128000,-83.3750,5,89.02,-2.83,17.73
12.138000,-82.2500,5,89.02,-2.83,17.73
12.148000,-72.3750,5,89.02,-2.83,17.73
12.158000,-90.2500,5,89.02,-2.83,17.73
12.168000,-91.3750,5,89.02,-2.83,17.73
12.178000,-85.1250,5,89.02,-2.83,17.73
12.188000,-87.6250,5,89.02,-2.83,17.73
12.198000,-78.2500,5,89.02,-2.83,17.73
12.208000,-81.1250,5,89.02,-2.83,17.73
12.218000,-74.6250,5,89.02,-2.83,17.73
12.228000,-79.2500,5,89.02,-2.83,17.73
12.238000,-74.0000,5,89.02,-2.83,17.73
12.248000,-75.3750,5,89.02,-2.83,17.73
12.258000,-70.7500,5,89.02,-2.83,17.73
12.268000,-73.0000,5,89.02,-2.83,17.73
12.278000,-66.8750,5,89.02,-2.83,17.73
12.288000,-78.0000,5,89.02,-2.83,17.73
12.298000,-94.7500,5,89.02,-2.83,17.73
12.308000,-83.7500,5,89.02,-2.83,17.73
12.318000,-84.6250,5,89.02,-2.83,17.73
12.328000,-84.2500,5,89.02,-2.83,17.73
12.338000,-89.3750,5,89.02,-2.83,17.73
12.348000,-86.5000,5,89.02,-2.83,17.73
12.358000,-87.0000,5,89.02,-2.83,17.73
12.368000,-90.5000,5,89.02,-2.83,17.73
12.378000,-86.1250,5,89.02,-2.83,17.73
12.388000,-84.6250,5,89.02,-2.83,17.73
12.398000,-77.6250,5,89.02,-2.83,17.73
12.408000,-92.2500,5,89.02,-2.83,17.73
12.418000,-95.8750,5,89.02,-2.83,17.73
12.428000,-84.6250,5,89.02,-2.83,17.73
12.438000,-84.1250,5,89.02,-2.83,17.73
12.448000,-81.3750,5,89.02,-2.83,17.73
12.458000,-83.3750,5,89.02,-2.83,17.73
12.468000,-80.5000,5,89.02,-2.83,17.73
12.478000,-82.2500,5,89.02,-2.83,17.73
12.488000,-78.8750,5,89.02,-2.83,17.73
12.498000,-80.8750,5,89.02,-2.83,17.73
12.508000,-77.3750,5,89.02,-2.83,17.73
12.518000,-79.0000,5,89.02,-2.83,17.73
12.528000,-73.7500,5,89.02,-2.83,17.73
12.538000,-70.1250,5,89.02,-2.83,17.73
12.548000,-81.3750,5,89.02,-2.83,17.73
12.558000,-79.1250,5,89.02,-2.83,17.73
12.568000,-88.0000,5,89.02,-2.83,17.73
12.578000,-90.3750,5,89.02,-2.83,17.73
12.588000,-84.2500,5,89.02,-2.83,17.73
12.598000,-86.0000,5,89.02,-2.83,17.73
12.608000,-80.6250,5,89.02,-2.83,17.73
12.618000,-84.2500,5,89.02,-2.83,17.73
12.628000,-88.2500,5,89.02,-2.83,17.73
12.638000,-80.2500,5,89.02,-2.83,17.73
12.648000,-83.6250,5,89.02,-2.83,17.73
12.658000,-85.1250,5,89.02,-2.83,17.73
12.668000,-86.3750,5,89.02,-2.83,17.73
12.678000,-90.2500,5,89.02,-2.83,17.73
12.688000,-77.8750,5,89.02,-2.83,17.73
12.698000,-63.8750,5,89.02,-2.83,17.73
12.708000,-76.2500,5,89.02,-2.83,17.73
12.718000,-67.3750,5,89.02,-2.83,17.73
12.728000,-66.5000,5,89.02,-2.83,17.73
12.738000,-80.5000,5,89.02,-2.83,17.73
12.748000,-82.5000,5,89.02,-2.83,17.73
12.758000,-82.7500,5,89.02,-2.83,17.73
12.768000,-84.8750,5,89.02,-2.83,17.73
12.778000,-83.5000,5,89.02,-2.83,17.73
12.788000,-86.7500,5,89.02,-2.83,17.73
12.798000,-80.5000,5,89.02,-2.83,17.73
12.808000,-81.3750,5,89.02,-2.83,17.73
12.818000,-81.6250,5,89.02,-2.83,17.73
12.828000,-81.8750,5,89.02,-2.83,17.73
12.838000,-75.0000,5,89.02,-2.83,17.73
12.848000,-80.0000,5,89.02,-2.83,17.73
12.858000,-80.6250,5,89.02,-2.83,17.73
12.868000,-77.6250,5,89.02,-2.83,17.73
12.878000,-78.2500,5,89.02,-2.83,17.73
12.888000,-84.0000,5,89.02,-2.83,17.73
12.898000,-78.8750,5,89.02,-2.83,17.73
12.908000,-74.2500,5,89.02,-2.83,17.73
12.918000,-96.3750,5,89.02,-2.83,17.73
12.928000,-70.5000,5,89.02,-2.83,17.73
12.938000,-68.1250,5,89.02,-2.83,17.73
12.948000,-67.1250,5,89.02,-2.83,17.73
12.958000,-57.1250,5,89.02,-2.83,17.73
12.968000,-60.5000,5,89.02,-2.83,17.73
12.978000,-54.5000,5,89.02,-2.83,17.73
12.988000,-59.5000,5,89.02,-2.83,17.73
12.998000,-56.1250,5,89.02,-2.83,17.73
13.008000,-63.7500,5,89.02,-2.83,17.73
13.018000,-64.5000,5,89.02,-2.83,17.73
13.028000,-73.3750,5,89.02,-2.83,17.73
13.038000,-78.0000,5,89.02,-2.83,17.73
13.048000,-78.8750,5,89.02,-2.83,17.73
13.058000,-79.5000,5,89.02,-2.83,17.73
13.068000,-84.0000,5,89.02,-2.83,17.73
13.078000,-74.2500,5,89.02,-2.83,17.73
13.088000,-78.5000,5,89.02,-2.83,17.73
13.098000,-76.0000,5,89.02,-2.83,17.73
13.108000,-79.3750,5,89.02,-2.83,17.73
13.118000,-82.8750,5,89.02,-2.83,17.73
13.128000,-75.1250,5,89.02,-2.83,17.73
13.138000,-77.6250,5,89.02,-2.83,17.73
13.148000,-84.5000,5,89.02,-2.83,17.73
13.158000,-74.8750,5,89.02,-2.83,17.73
13.168000,-77.3750,5,89.02,-2.83,17.73
13.178000,-74.3750,5,89.02,-2.83,17.73
13.188000,-73.3750,5,89.02,-2.83,17.73
13.198000,-78.0000,5,89.02,-2.83,17.73
13.208000,-74.3750,5,89.02,-2.83,17.73
13.218000,-79.2500,5,89.02,-2.83,17.73
13.228000,-79.6250,5,89.02,-2.83,17.73
13.238000,-73.6250,5,89.02,-2.83,17.73
13.248000,-89.8750,5,89.02,-2.83,17.73
13.258000,-72.7500,5,89.02,-2.83,17.73
13.268000,-75.1250,5,89.02,-2.83,17.73
13.278000,-68.6250,5,89.02,-2.83,17.73
13.288000,-61.2500,5,89.02,-2.83,17.73
13.298000,-58.7500,5,89.02,-2.83,17.73
13.308000,-61.8750,5,89.02,-2.83,17.73
13.318000,-60.8750,5,89.02,-2.83,17.73
13.328000,-72.3750,5,89.02,-2.83,17.73
13.338000,-81.0000,5,89.02,-2.83,17.73
13.348000,-81.8750,5,89.02,-2.83,17.73
13.358000,-80.5000,5,89.02,-2.83,17.73
13.368000,-78.2500,5,89.02,-2.83,17.73
13.378000,-77.8750,5,89.02,-2.83,17.73
13.388000,-78.8750,5,89.02,-2.83,17.73
13.398000,-80.3750,5,89.02,-2.83,17.73
13.408000,-78.2500,5,89.02,-2.83,17.73
13.418000,-83.6250,5,89.02,-2.83,17.73
13.428000,-78.6250,5,89.02,-2.83,17.73
13.438000,-78.1250,5,89.02,-2.83,17.73
13.448000,-82.5000,5,89.02,-2.83,17.73
13.458000,-82.2500,5,89.02,-2.83,17.73
13.468000,-81.5000,5,89.02,-2.83,17.73
13.478000,-80.2500,5,89.02,-2.83,17.73
13.488000,-78.5000,5,89.02,-2.83,17.73
13.498000,-78.3750,5,89.02,-2.83,17.73
13.508000,-67.7500,5,89.02,-2.83,17.73
13.518000,-87.3750,5,89.02,-2.83,17.73
13.528000,-77.2500,5,89.02,-2.83,17.73
13.538000,-72.6250,5,89.02,-2.83,17.73
13.548000,-80.7500,5,89.02,-2.83,17.73
13.558000,-75.0000,5,89.02,-2.83,17.73
13.568000,-70.2500,5,89.02,-2.83,17.73
13.578000,-60.3750,5,89.02,-2.83,17.73
13.588000,-79.1250,5,89.02,-2.83,17.73
13.598000,-87.8750,5,89.02,-2.83,17.73
13.608000,-80.3750,5,89.02,-2.83,17.73
13.618000,-83.8750,5,89.02,-2.83,17.73
13.628000,-85.1250,5,89.02,-2.83,17.73
13.638000,-82.2500,5,89.02,-2.83,17.73
13.648000,-88.2500,5,89.02,-2.83,17.73
13.658000,-85.2500,5,89.02,-2.83,17.73
13.668000,-84.3750,5,89.02,-2.83,17.73
13.678000,-85.6250,5,89.02,-2.83,17.73
13.688000,-82.5000,5,89.02,-2.83,17.73
13.698000,-81.5000,5,89.02,-2.83,17.73
13.708000,-84.8750,5,89.02,-2.83,17.73
13.718000,-79.6250,5,89.02,-2.83,17.73
13.728000,-78.7500,5,89.02,-2.83,17.73
13.738000,-78.2500,5,89.02,-2.83,17.73
13.748000,-78.3750,5,89.02,-2.83,17.73
13.758000,-75.2500,5,89.02,-2.83,17.73
13.768000,-78.2500,5,89.02,-2.83,17.73
13.778000,-80.6250,5,89.02,-2.83,17.73
13.788000,-60.7500,5,89.02,-2.83,17.73
13.798000,-67.7500,5,89.02,-2.83,17.73
13.808000,-90.7500,5,89.02,-2.83,17.73
13.818000,-95.2500,5,89.02,-2.83,17.73
13.828000,-76.1250,5,89.02,-2.83,17.73
13.838000,-74.7500,5,89.02,-2.83,17.73
13.848000,-73.8750,5,89.02,-2.83,17.73
13.858000,-69.0000,5,89.02,-2.83,17.73
13.868000,-73.0000,5,89.02,-2.83,17.73
13.878000,-67.5000,5,89.02,-2.83,17.73
13.888000,-64.7500,5,89.02,-2.83,17.73
13.898000,-66.0000,5,89.02,-2.83,17.73
13.908000,-63.0000,5,89.02,-2.83,17.73
13.918000,-56.7500,5,89.02,-2.83,17.73
13.928000,-58.6250,5,89.02,-2.83,17.73
13.938000,-58.5000,5,89.02,-2.83,17.73
13.948000,-55.8750,5,89.02,-2.83,17.73
13.958000,-58.6250,5,89.02,-2.83,17.73
13.968000,-63.0000,5,89.02,-2.83,17.73
13.978000,-61.6250,5,89.02,-2.83,17.73
13.988000,-63.2500,5,89.02,-2.83,17.73
13.998000,-70.1250,5,89.02,-2.83,17.73
14.008000,-68.6250,5,89.02,-2.83,17.73
14.018000,-74.3750,5,89.02,-2.83,17.73
14.028000,-70.0000,5,89.02,-2.83,17.73
14.038000,-75.5000,5,89.02,-2.83,17.73
14.048000,-71.7500,5,89.02,-2.83,17.73
14.058000,-74.6250,5,89.02,-2.83,17.73
14.068000,-72.5000,5,89.02,-2.83,17.73
14.078000,-74.7500,5,89.02,-2.83,17.73
14.088000,-71.6250,5,89.02,-2.83,17.73
14.098000,-74.2500,5,89.02,-2.83,17.73
14.108000,-74.6250,5,89.02,-2.83,17.73
14.118000,-73.6250,5,89.02,-2.83,17.73
14.128000,-74.3750,5,89.02,-2.83,17.73
14.138000,-72.6250,5,89.02,-2.83,17.73
14.148000,-73.3750,5,89.02,-2.83,17.73
14.158000,-78.8750,5,89.02,-2.83,17.73
14.168000,-73.0000,5,89.02,-2.83,17.73
14.178000,-78.3750,5,89.02,-2.83,17.73
14.188000,-69.3750,5,89.02,-2.83,17.73
14.198000,-70.2500,5,89.02,-2.83,17.73
14.208000,-72.3750,5,89.02,-2.83,17.73
14.218000,-74.7500,5,89.02,-2.83,17.73
14.228000,-72.2500,5,89.02,-2.83,17.73
14.238000,-75.3750,5,89.02,-2.83,17.73
14.248000,-71.3750,5,89.02,-2.83,17.73
14.258000,-75.5000,5,89.02,-2.83,17.73
14.268000,-70.5000,5,89.02,-2.83,17.73
14.278000,-75.6250,5,89.02,-2.83,17.73
14.288000,-72.1250,5,89.02,-2.83,17.73
14.298000,-75.3750,5,89.02,-2.83,17.73
14.308000,-72.0000,5,89.02,-2.83,17.73
14.318000,-75.6250,7,98.22,1.39,14.84
14.328000,-71.1250,7,98.22,1.39,14.84
14.338000,-73.5000,7,98.22,1.39,14.84
14.348000,-70.6250,7,98.22,1.39,14.84
14.358000,-72.8750,7,98.22,1.39,14.84
14.368000,-70.7500,7,98.22,1.39,14.84
14.378000,-75.1250,7,98.22,1.39,14.84
14.388000,-73.2500,7,98.22,1.39,14.84
14.398000,-76.0000,7,98.22,1.39,14.84
14.408000,-73.7500,7,98.22,1.39,14.84
14.418000,-76.8750,7,98.22,1.39,14.84
14.428000,-73.7500,7,98.22,1.39,14.84
14.438000,-77.5000,7,98.22,1.39,14.84
14.448000,-74.8750,7,98.22,1.39,14.84
14.458000,-77.0000,7,98.22,1.39,14.84
14.468000,-75.0000,7,98.22,1.39,14.84
14.478000,-73.0000,7,98.22,1.39,14.84
14.488000,-62.5000,7,98.22,1.39,14.84
14.498000,-58.8750,7,98.22,1.39,14.84
14.508000,-71.0000,7,98.22,1.39,14.84
14.518000,-90.0000,7,98.22,1.39,14.84
14.528000,-83.2500,7,98.22,1.39,14.84
14.538000,-72.1250,7,98.22,1.39,14.84
14.548000,-70.5000,7,98.22,1.39,14.84
14.558000,-76.6250,7,98.22,1.39,14.84
14.568000,-71.7500,7,98.22,1.39,14.84
14.578000,-77.2500,7,98.22,1.39,14.84
14.588000,-71.3750,7,98.22,1.39,14.84
14.598000,-76.5000,7,98.22,1.39,14.84
14.608000,-77.2500,7,98.22,1.39,14.84
14.618000,-74.5000,7,98.22,1.39,14.84
14.628000,-75.7500,7,98.22,1.39,14.84
14.638000,-73.0000,7,98.22,1.39,14.84
14.648000,-73.0000,7,98.22,1.39,14.84
14.658000,-74.7500,7,98.22,1.39,14.84
14.668000,-70.3750,7,98.22,1.39,14.84
14.678000,-70.8750,7,98.22,1.39,14.84
14.688000,-65.7500,7,98.22,1.39,14.84
14.698000,-66.6250,7,98.22,1.39,14.84
14.708000,-64.3750,7,98.22,1.39,14.84
14.718000,-66.7500,7,98.22,1.39,14.84
14.728000,-66.5000,7,98.22,1.39,14.84
14.738000,-72.0000,7,98.22,1.39,14.84
14.748000,-74.1250,7,98.22,1.39,14.84
14.758000,-74.8750,7,98.22,1.39,14.84
14.768000,-81.3750,7,98.22,1.39,14.84
14.778000,-80.7500,7,98.22,1.39,14.84
14.788000,-85.6250,7,98.22,1.39,14.84
14.798000,-83.2500,7,98.22,1.39,14.84
14.808000,-82.2500,7,98.22,1.39,14.84
14.818000,-84.8750,7,98.22,1.39,14.84
14.828000,-82.8750,7,98.22,1.39,14.84
14.838000,-85.7500,7,98.22,1.39,14.84
14.848000,-83.0000,7,98.22,1.39,14.84
14.858000,-81.3750,7,98.22,1.39,14.84
14.868000,-83.2500,7,98.22,1.39,14.84
14.878000,-81.0000,7,98.22,1.39,14.84
14.888000,-82.5000,7,98.22,1.39,14.84
14.898000,-81.1250,7,98.22,1.39,14.84
14.908000,-81.6250,7,98.22,1.39,14.84
14.918000,-80.8750,7,98.22,1.39,14.84
14.928000,-81.2500,7,98.22,1.39,14.84
14.938000,-80.7500,7,98.22,1.39,14.84
14.948000,-81.2500,7,98.22,1.39,14.84
14.958000,-82.0000,7,98.22,1.39,14.84
14.968000,-82.0000,7,98.22,1.39,14.84
14.978000,-80.3750,7,98.22,1.39,14.84
14.988000,-81.8750,7,98.22,1.39,14.84
14.998000,-80.3750,7,98.22,1.39,14.84
15.008000,-82.3750,7,98.22,1.39,14.84
15.018000,-81.2500,7,98.22,1.39,14.84
15.028000,-82.8750,7,98.22,1.39,14.84
15.038000,-80.2500,7,98.22,1.39,14.84
15.048000,-83.0000,7,98.22,1.39,14.84
15.058000,-81.1250,7,98.22,1.39,14.84
15.068000,-83.1250,7,98.22,1.39,14.84
15.078000,-80.2500,7,98.22,1.39,14.84
15.088000,-83.0000,7,98.22,1.39,14.84
15.098000,-80.5000,7,98.22,1.39,14.84
15.108000,-83.3750,7,98.22,1.39,14.84
15.118000,-80.6250,7,98.22,1.39,14.84
15.128000,-83.8750,7,98.22,1.39,14.84
15.138000,-80.7500,7,98.22,1.39,14.84
15.148000,-84.1250,7,98.22,1.39,14.84
15.158000,-79.6250,7,98.22,1.39,14.84
15.168000,-83.1250,7,98.22,1.39,14.84
15.178000,-77.5000,7,98.22,1.39,14.84
15.188000,-82.7500,7,98.22,1.39,14.84
15.198000,-77.0000,7,98.22,1.39,14.84
15.208000,-83.0000,7,98.22,1.39,14.84
15.218000,-78.7500,7,98.22,1.39,14.84
15.228000,-84.3750,7,98.22,1.39,14.84
15.238000,-80.8750,7,98.22,1.39,14.84
15.248000,-85.7500,7,98.22,1.39,14.84
15.258000,-80.6250,7,98.22,1.39,14.84
15.268000,-85.7500,7,98.22,1.39,14.84
15.278000,-80.3750,7,98.22,1.39,14.84
15.288000,-86.0000,7,98.22,1.39,14.84
15.298000,-80.2500,7,98.22,1.39,14.84
15.308000,-85.7500,7,98.22,1.39,14.84
15.318000,-75.6250,7,98.22,1.39,14.84
15.328000,-73.3750,7,98.22,1.39,14.84
15.338000,-62.0000,7,98.22,1.39,14.84
15.348000,-80.7500,7,98.22,1.39,14.84
15.358000,-92.3750,7,98.22,1.39,14.84
15.368000,-94.1250,7,98.22,1.39,14.84
15.378000,-75.1250,7,98.22,1.39,14.84
15.388000,-79.1250,7,98.22,1.39,14.84
15.398000,-76.6250,7,98.22,1.39,14.84
15.408000,-81.1250,7,98.22,1.39,14.84
15.418000,-76.1250,7,98.22,1.39,14.84
15.428000,-80.7500,7,98.22,1.39,14.84
15.438000,-75.6250,7,98.22,1.39,14.84
15.448000,-79.1250,7,98.22,1.39,14.84
15.458000,-73.8750,7,98.22,1.39,14.84
15.468000,-77.5000,7,98.22,1.39,14.84
15.478000,-72.2500,7,98.22,1.39,14.84
15.488000,-75.1250,7,98.22,1.39,14.84
15.498000,-70.3750,7,98.22,1.39,14.84
15.508000,-72.0000,7,98.22,1.39,14.84
15.518000,-66.5000,7,98.22,1.39,14.84
15.528000,-68.1250,7,98.22,1.39,14.84
15.538000,-63.0000,7,98.22,1.39,14.84
15.548000,-65.2500,7,98.22,1.39,14.84
15.558000,-63.0000,7,98.22,1.39,14.84
15.568000,-66.5000,7,98.22,1.39,14.84
15.578000,-65.7500,7,98.22,1.39,14.84
15.588000,-73.8750,7,98.22,1.39,14.84
15.598000,-73.2500,7,98.22,1.39,14.84
15.608000,-81.2500,7,98.22,1.39,14.84
15.618000,-80.0000,7,98.22,1.39,14.84
15.628000,-84.6250,7,98.22,1.39,14.84
15.638000,-81.6250,7,98.22,1.39,14.84
15.648000,-85.8750,7,98.22,1.39,14.84
15.658000,-82.6250,7,98.22,1.39,14.84
15.668000,-85.7500,7,98.22,1.39,14.84
15.678000,-82.3750,7,98.22,1.39,14.84
15.688000,-85.8750,7,98.22,1.39,14.84
15.698000,-82.7500,7,98.22,1.39,14.84
15.708000,-85.2500,7,98.22,1.39,14.84
15.718000,-83.6250,7,98.22,1.39,14.84
15.728000,-85.0000,7,98.22,1.39,14.84
15.738000,-81.8750,7,98.22,1.39,14.84
15.748000,-84.8750,7,98.22,1.39,14.84
15.758000,-82.0000,7,98.22,1.39,14.84
15.768000,-86.7500,7,98.22,1.39,14.84
15.778000,-81.7500,7,98.22,1.39,14.84
15.788000,-86.6250,7,98.22,1.39,14.84
15.798000,-82.7500,7,98.22,1.39,14.84
15.808000,-86.6250,7,98.22,1.39,14.84
15.818000,-89.0000,7,98.22,1.39,14.84
15.828000,-87.5000,7,98.22,1.39,14.84
15.838000,-89.5000,7,98.22,1.39,14.84
15.848000,-86.7500,7,98.22,1.39,14.84
15.858000,-88.7500,7,98.22,1.39,14.84
15.868000,-91.6250,7,98.22,1.39,14.84
15.878000,-88.3750,7,98.22,1.39,14.84
15.888000,-91.5000,7,98.22,1.39,14.84
15.898000,-87.8750,7,98.22,1.39,14.84
15.908000,-91.5000,7,98.22,1.39,14.84
15.918000,-87.3750,7,98.22,1.39,14.84
15.928000,-91.3750,7,98.22,1.39,14.84
15.938000,-90.2500,7,98.22,1.39,14.84
15.948000,-89.7500,7,98.22,1.39,14.84
15.958000,-88.7500,7,98.22,1.39,14.84
15.968000,-88.8750,7,98.22,1.39,14.84
15.978000,-88.8750,7,98.22,1.39,14.84
15.988000,-85.8750,7,98.22,1.39,14.84
15.998000,-88.3750,7,98.22,1.39,14.84
16.008000,-85.8750,7,98.22,1.39,14.84
16.018000,-87.6250,7,98.22,1.39,14.84
16.028000,-85.3750,7,98.22,1.39,14.84
16.038000,-81.6250,7,98.22,1.39,14.84
16.048000,-85.2500,7,98.22,1.39,14.84
16.058000,-83.0000,7,98.22,1.39,14.84
16.068000,-87.5000,7,98.22,1.39,14.84
16.078000,-83.7500,7,98.22,1.39,14.84
16.088000,-84.2500,7,98.22,1.39,14.84
16.098000,-85.5000,7,98.22,1.39,14.84
16.108000,-84.3750,7,98.22,1.39,14.84
16.118000,-84.5000,7,98.22,1.39,14.84
16.128000,-84.7500,7,98.22,1.39,14.84
16.138000,-72.6250,7,98.22,1.39,14.84
16.148000,-83.1250,7,98.22,1.39,14.84
16.158000,-79.3750,7,98.22,1.39,14.84
16.168000,-74.2500,7,98.22,1.39,14.84
16.178000,-65.1250,7,98.22,1.39,14.84
16.188000,-66.0000,7,98.22,1.39,14.84
16.198000,-67.0000,7,98.22,1.39,14.84
16.208000,-81.8750,7,98.22,1.39,14.84
16.218000,-85.7500,7,98.22,1.39,14.84
16.228000,-87.1250,7,98.22,1.39,14.84
16.238000,-85.1250,7,98.22,1.39,14.84
16.248000,-88.2500,7,98.22,1.39,14.84
16.258000,-83.3750,7,98.22,1.39,14.84
16.268000,-87.8750,7,98.22,1.39,14.84
16.278000,-83.2500,7,98.22,1.39,14.84
16.288000,-86.6250,7,98.22,1.39,14.84
16.298000,-82.7500,7,98.22,1.39,14.84
16.308000,-87.5000,7,98.22,1.39,14.84
16.318000,-82.2500,7,98.22,1.39,14.84
16.328000,-87.7500,7,98.22,1.39,14.84
16.338000,-88.8750,7,98.22,1.39,14.84
16.348000,-87.1250,7,98.22,1.39,14.84
16.358000,-87.5000,7,98.22,1.39,14.84
16.368000,-80.7500,7,98.22,1.39,14.84
16.378000,-73.3750,7,98.22,1.39,14.84
16.388000,-93.1250,7,98.22,1.39,14.84
16.398000,-83.7500,7,98.22,1.39,14.84
16.408000,-80.0000,7,98.22,1.39,14.84
16.418000,-82.6250,7,98.22,1.39,14.84
16.428000,-85.0000,7,98.22,1.39,14.84
16.438000,-75.2500,7,98.22,1.39,14.84
16.448000,-74.8750,7,98.22,1.39,14.84
16.458000,-76.2500,7,98.22,1.39,14.84
16.468000,-74.1250,7,98.22,1.39,14.84
16.478000,-68.7500,7,98.22,1.39,14.84
16.488000,-73.6250,7,98.22,1.39,14.84
16.498000,-70.2500,7,98.22,1.39,14.84
16.508000,-78.0000,7,98.22,1.39,14.84
16.518000,-77.2500,7,98.22,1.39,14.84
16.528000,-80.7500,7,98.22,1.39,14.84
16.538000,-85.1250,7,98.22,1.39,14.84
16.548000,-86.5000,7,98.22,1.39,14.84
16.558000,-88.6250,7,98.22,1.39,14.84
16.568000,-88.7500,7,98.22,1.39,14.84
16.578000,-91.3750,7,98.22,1.39,14.84
16.588000,-88.1250,7,98.22,1.39,14.84
16.598000,-86.3750,7,98.22,1.39,14.84
16.608000,-87.8750,7,98.22,1.39,14.84
16.618000,-87.0000,7,98.22,1.39,14.84
16.628000,-86.2500,7,98.22,1.39,14.84
16.638000,-84.7500,7,98.22,1.39,14.84
16.648000,-87.8750,7,98.22,1.39,14.84
16.658000,-78.6250,7,98.22,1.39,14.84
16.668000,-69.3750,7,98.22,1.39,14.84
16.678000,-103.3750,7,98.22,1.39,14.84
16.688000,-86.2500,7,98.22,1.39,14.84
16.698000,-81.5000,7,98.22,1.39,14.84
16.708000,-87.1250,7,98.22,1.39,14.84
16.718000,-81.2500,7,98.22,1.39,14.84
16.728000,-75.5000,7,98.22,1.39,14.84
16.738000,-67.1250,7,98.22,1.39,14.84
16.748000,-87.3750,7,98.22,1.39,14.84
16.758000,-91.0000,7,98.22,1.39,14.84
16.768000,-84.3750,7,98.22,1.39,14.84
16.778000,-86.5000,7,98.22,1.39,14.84
16.788000,-83.1250,7,98.22,1.39,14.84
16.798000,-81.0000,7,98.22,1.39,14.84
16.808000,-85.2500,7,98.22,1.39,14.84
16.818000,-85.6250,7,98.22,1.39,14.84
16.828000,-82.3750,7,98.22,1.39,14.84
16.838000,-84.8750,7,98.22,1.39,14.84
16.848000,-81.2500,7,98.22,1.39,14.84
16.858000,-82.1250,7,98.22,1.39,14.84
16.868000,-83.1250,7,98.22,1.39,14.84
16.878000,-87.2500,7,98.22,1.39,14.84
16.888000,-86.2500,7,98.22,1.39,14.84
16.898000,-75.5000,7,98.22,1.39,14.84
16.908000,-81.8750,7,98.22,1.39,14.84
16.918000,-85.2500,7,98.22,1.39,14.84
16.928000,-88.6250,7,98.22,1.39,14.84
16.938000,-86.6250,7,98.22,1.39,14.84
16.948000,-86.3750,7,98.22,1.39,14.84
16.958000,-87.1250,7,98.22,1.39,14.84
16.968000,-84.5000,7,98.22,1.39,14.84
16.978000,-86.5000,7,98.22,1.39,14.84
16.988000,-83.1250,7,98.22,1.39,14.84
16.998000,-86.3750,7,98.22,1.39,14.84
17.008000,-84.0000,7,98.22,1.39,14.84
17.018000,-86.6250,7,98.22,1.39,14.84
17.028000,-84.1250,7,98.22,1.39,14.84
17.038000,-86.2500,7,98.22,1.39,14.84
17.048000,-88.8750,7,98.22,1.39,14.84
17.058000,-81.7500,7,98.22,1.39,14.84
17.068000,-85.6250,7,98.22,1.39,14.84
17.078000,-90.5000,7,98.22,1.39,14.84
17.088000,-84.0000,7,98.22,1.39,14.84
17.098000,-80.6250,7,98.22,1.39,14.84
17.108000,-81.3750,7,98.22,1.39,14.84
17.118000,-91.2500,7,98.22,1.39,14.84
17.128000,-82.6250,7,98.22,1.39,14.84
17.138000,-86.6250,7,98.22,1.39,14.84
17.148000,-79.7500,7,98.22,1.39,14.84
17.158000,-81.0000,7,98.22,1.39,14.84
17.168000,-87.5000,7,98.22,1.39,14.84
17.178000,-77.8750,7,98.22,1.39,14.84
17.188000,-74.8750,7,98.22,1.39,14.84
17.198000,-70.6250,7,98.22,1.39,14.84
17.208000,-70.5000,7,98.22,1.39,14.84
17.218000,-74.3750,7,98.22,1.39,14.84
17.228000,-77.5000,7,98.22,1.39,14.84
17.238000,-81.7500,7,98.22,1.39,14.84
17.248000,-84.6250,7,98.22,1.39,14.84
17.258000,-85.7500,7,98.22,1.39,14.84
17.268000,-88.2500,7,98.22,1.39,14.84
17.278000,-83.0000,7,98.22,1.39,14.84
17.288000,-82.5000,7,98.22,1.39,14.84
17.298000,-92.2500,7,98.22,1.39,14.84
17.308000,-82.7500,7,98.22,1.39,14.84
17.318000,-82.6250,7,98.22,1.39,14.84
17.328000,-85.7500,7,98.22,1.39,14.84
17.338000,-82.5000,7,98.22,1.39,14.84
17.348000,-84.2500,7,98.22,1.39,14.84
17.358000,-87.7500,7,98.22,1.39,14.84
17.368000,-80.0000,7,98.22,1.39,14.84
17.378000,-81.3750,7,98.22,1.39,14.84
17.388000,-83.0000,7,98.22,1.39,14.84
17.398000,-68.7500,7,98.22,1.39,14.84
17.408000,-75.0000,7,98.22,1.39,14.84
17.418000,-91.6250,7,98.22,1.39,14.84
17.428000,-75.2500,7,98.22,1.39,14.84
17.438000,-81.5000,7,98.22,1.39,14.84
17.448000,-77.0000,7,98.22,1.39,14.84
17.458000,-82.1250,7,98.22,1.39,14.84
17.468000,-71.7500,7,98.22,1.39,14.84
17.478000,-74.3750,7,98.22,1.39,14.84
17.488000,-85.5000,7,98.22,1.39,14.84
17.498000,-83.5000,7,98.22,1.39,14.84
17.508000,-91.0000,7,98.22,1.39,14.84
17.518000,-90.6250,7,98.22,1.39,14.84
17.528000,-90.0000,7,98.22,1.39,14.84
17.538000,-82.6250,7,98.22,1.39,14.84
17.548000,-84.7500,7,98.22,1.39,14.84
17.558000,-81.1250,7,98.22,1.39,14.84
17.568000,-83.1250,7,98.22,1.39,14.84
17.578000,-84.1250,7,98.22,1.39,14.84
17.588000,-83.6250,7,98.22,1.39,14.84
17.598000,-86.8750,7,98.22,1.39,14.84
17.608000,-81.3750,7,98.22,1.39,14.84
17.618000,-82.0000,7,98.22,1.39,14.84
17.628000,-82.5000,7,98.22,1.39,14.84
17.638000,-79.7500,7,98.22,1.39,14.84
17.648000,-84.5000,7,98.22,1.39,14.84
17.658000,-80.8750,7,98.22,1.39,14.84
17.668000,-88.0000,7,98.22,1.39,14.84
17.678000,-78.3750,7,98.22,1.39,14.84
17.688000,-63.8750,7,98.22,1.39,14.84
17.698000,-67.3750,7,98.22,1.39,14.84
17.708000,-77.2500,7,98.22,1.39,14.84
17.718000,-74.7500,7,98.22,1.39,14.84
17.728000,-76.3750,7,98.22,1.39,14.84
17.738000,-75.2500,7,98.22,1.39,14.84
17.748000,-79.0000,7,98.22,1.39,14.84
17.758000,-81.5000,7,98.22,1.39,14.84
17.768000,-82.1250,7,98.22,1.39,14.84
17.778000,-80.8750,7,98.22,1.39,14.84
17.788000,-81.0000,7,98.22,1.39,14.84
17.798000,-79.6250,7,98.22,1.39,14.84
17.808000,-83.8750,7,98.22,1.39,14.84
17.818000,-80.6250,7,98.22,1.39,14.84
17.828000,-82.8750,7,98.22,1.39,14.84
17.838000,-80.5000,7,98.22,1.39,14.84
17.848000,-79.0000,7,98.22,1.39,14.84
17.858000,-84.1250,7,98.22,1.39,14.84
17.868000,-78.7500,7,98.22,1.39,14.84
17.878000,-83.8750,7,98.22,1.39,14.84
17.888000,-79.2500,7,98.22,1.39,14.84
17.898000,-83.0000,7,98.22,1.39,14.84
17.908000,-78.6250,7,98.22,1.39,14.84
17.918000,-83.1250,7,98.22,1.39,14.84
17.928000,-84.3750,7,98.22,1.39,14.84
17.938000,-81.5000,7,98.22,1.39,14.84
17.948000,-84.3750,7,98.22,1.39,14.84
17.958000,-81.2500,7,98.22,1.39,14.84
17.968000,-79.7500,7,98.22,1.39,14.84
17.978000,-81.3750,7,98.22,1.39,14.84
17.988000,-80.1250,7,98.22,1.39,14.84
17.998000,-80.3750,7,98.22,1.39,14.84
18.008000,-74.6250,7,98.22,1.39,14.84
18.018000,-78.8750,7,98.22,1.39,14.84
18.028000,-74.0000,7,98.22,1.39,14.84
18.038000,-76.7500,7,98.22,1.39,14.84
18.048000,-75.6250,7,98.22,1.39,14.84
18.058000,-79.0000,7,98.22,1.39,14.84
18.068000,-81.1250,7,98.22,1.39,14.84
18.078000,-83.3750,7,98.22,1.39,14.84
18.088000,-80.1250,7,98.22,1.39,14.84
18.098000,-78.7500,7,98.22,1.39,14.84
18.108000,-79.6250,7,98.22,1.39,14.84
18.118000,-78.8750,7,98.22,1.39,14.84
18.128000,-77.2500,7,98.22,1.39,14.84
18.138000,-78.7500,7,98.22,1.39,14.84
18.148000,-77.1250,7,98.22,1.39,14.84
18.158000,-70.7500,7,98.22,1.39,14.84
18.168000,-64.6250,7,98.22,1.39,14.84
18.178000,-58.1250,7,98.22,1.39,14.84
18.188000,-70.6250,7,98.22,1.39,14.84
18.198000,-84.0000,7,98.22,1.39,14.84
18.208000,-77.2500,7,98.22,1.39,14.84
18.218000,-76.0000,7,98.22,1.39,14.84
18.228000,-74.5000,7,98.22,1.39,14.84
18.238000,-71.1250,7,98.22,1.39,14.84
18.248000,-73.2500,7,98.22,1.39,14.84
18.258000,-68.8750,7,98.22,1.39,14.84
18.268000,-66.6250,7,98.22,1.39,14.84
18.278000,-66.1250,7,98.22,1.39,14.84
18.288000,-64.7500,7,98.22,1.39,14.84
18.298000,-63.6250,7,98.22,1.39,14.84
18.308000,-61.0000,7,98.22,1.39,14.84
18.318000,-59.7500,7,98.22,1.39,14.84
18.328000,-57.0000,7,98.22,1.39,14.84
18.338000,-56.8750,7,98.22,1.39,14.84
18.348000,-53.3750,7,98.22,1.39,14.84
18.358000,-57.1250,7,98.22,1.39,14.84
18.368000,-57.0000,7,98.22,1.39,14.84
18.378000,-62.1250,7,98.22,1.39,14.84
18.388000,-63.7500,7,98.22,1.39,14.84
18.398000,-69.8750,7,98.22,1.39,14.84
18.408000,-68.6250,7,98.22,1.39,14.84
18.418000,-72.7500,7,98.22,1.39,14.84
18.428000,-71.3750,9,97.74,2.16,15.59
18.438000,-74.7500,9,97.74,2.16,15.59
18.448000,-70.7500,9,97.74,2.16,15.59
18.458000,-75.7500,9,97.74,2.16,15.59
18.468000,-71.7500,9,97.74,2.16,15.59
18.478000,-75.1250,9,97.74,2.16,15.59
18.488000,-72.5000,9,97.74,2.16,15.59
18.498000,-75.0000,9,97.74,2.16,15.59
18.508000,-72.3750,9,97.74,2.16,15.59
18.518000,-73.5000,9,97.74,2.16,15.59
18.528000,-70.1250,9,97.74,2.16,15.59
18.538000,-73.1250,9,97.74,2.16,15.59
18.548000,-69.5000,9,97.74,2.16,15.59
18.558000,-73.6250,9,97.74,2.16,15.59
18.568000,-70.0000,9,97.74,2.16,15.59
18.578000,-73.6250,9,97.74,2.16,15.59
18.588000,-69.3750,9,97.74,2.16,15.59
18.598000,-73.6250,9,97.74,2.16,15.59
18.608000,-70.0000,9,97.74,2.16,15.59
18.618000,-74.2500,9,97.74,2.16,15.59
18.628000,-70.1250,9,97.74,2.16,15.59
18.638000,-73.7500,9,97.74,2.16,15.59
18.648000,-69.3750,9,97.74,2.16,15.59
18.658000,-74.5000,9,97.74,2.16,15.59
18.668000,-69.3750,9,97.74,2.16,15.59
18.678000,-74.5000,9,97.74,2.16,15.59
18.688000,-68.7500,9,97.74,2.16,15.59
18.698000,-73.7500,9,97.74,2.16,15.59
18.708000,-68.8750,9,97.74,2.16,15.59
18.718000,-73.2500,9,97.74,2.16,15.59
18.728000,-68.7500,9,97.74,2.16,15.59
18.738000,-73.3750,9,97.74,2.16,15.59
18.748000,-68.3750,9,97.74,2.16,15.59
18.758000,-72.3750,9,97.74,2.16,15.59
18.768000,-67.6250,9,97.74,2.16,15.59
18.778000,-72.0000,9,97.74,2.16,15.59
18.788000,-67.6250,9,97.74,2.16,15.59
18.798000,-71.1250,9,97.74,2.16,15.59
18.808000,-67.1250,9,97.74,2.16,15.59
18.818000,-72.5000,9,97.74,2.16,15.59
18.828000,-66.8750,9,97.74,2.16,15.59
18.838000,-72.6250,9,97.74,2.16,15.59
18.848000,-69.6250,9,97.74,2.16,15.59
18.858000,-74.3750,9,97.74,2.16,15.59
18.868000,-69.2500,9,97.74,2.16,15.59
18.878000,-73.1250,9,97.74,2.16,15.59
18.888000,-70.1250,9,97.74,2.16,15.59
18.898000,-74.6250,9,97.74,2.16,15.59
18.908000,-69.5000,9,97.74,2.16,15.59
18.918000,-73.1250,9,97.74,2.16,15.59
18.928000,-66.6250,9,97.74,2.16,15.59
18.938000,-60.1250,9,97.74,2.16,15.59
18.948000,-51.2500,9,97.74,2.16,15.59
18.958000,-67.1250,9,97.74,2.16,15.59
18.968000,-83.5000,9,97.74,2.16,15.59
18.978000,-82.3750,9,97.74,2.16,15.59
18.988000,-65.6250,9,97.74,2.16,15.59
18.998000,-67.0000,9,97.74,2.16,15.59
19.008000,-65.6250,9,97.74,2.16,15.59
19.018000,-67.5000,9,97.74,2.16,15.59
19.028000,-66.2500,9,97.74,2.16,15.59
19.038000,-68.3750,9,97.74,2.16,15.59
19.048000,-64.8750,9,97.74,2.16,15.59
19.058000,-66.7500,9,97.74,2.16,15.59
19.068000,-66.0000,9,97.74,2.16,15.59
19.078000,-65.3750,9,97.74,2.16,15.59
19.088000,-65.0000,9,97.74,2.16,15.59
19.098000,-64.1250,9,97.74,2.16,15.59
19.108000,-61.3750,9,97.74,2.16,15.59
19.118000,-64.5000,9,97.74,2.16,15.59
19.128000,-57.3750,9,97.74,2.16,15.59
19.138000,-60.0000,9,97.74,2.16,15.59
19.148000,-54.6250,9,97.74,2.16,15.59
19.158000,-57.6250,9,97.74,2.16,15.59
19.168000,-58.7500,9,97.74,2.16,15.59
19.178000,-58.7500,9,97.74,2.16,15.59
19.188000,-62.5000,9,97.74,2.16,15.59
19.198000,-63.8750,9,97.74,2.16,15.59
19.208000,-70.0000,9,97.74,2.16,15.59
19.218000,-75.5000,9,97.74,2.16,15.59
19.228000,-75.3750,9,97.74,2.16,15.59
19.238000,-79.3750,9,97.74,2.16,15.59
19.248000,-77.3750,9,97.74,2.16,15.59
19.258000,-80.6250,9,97.74,2.16,15.59
19.268000,-77.0000,9,97.74,2.16,15.59
19.278000,-81.3750,9,97.74,2.16,15.59
19.288000,-77.6250,9,97.74,2.16,15.59
19.298000,-80.7500,9,97.74,2.16,15.59
19.308000,-78.0000,9,97.74,2.16,15.59
19.318000,-81.1250,9,97.74,2.16,15.59
19.328000,-77.5000,9,97.74,2.16,15.59
19.338000,-75.3750,9,97.74,2.16,15.59
19.348000,-77.7500,9,97.74,2.16,15.59
19.358000,-75.2500,9,97.74,2.16,15.59
19.368000,-78.2500,9,97.74,2.16,15.59
19.378000,-76.2500,9,97.74,2.16,15.59
19.388000,-74.5000,9,97.74,2.16,15.59
19.398000,-76.5000,9,97.74,2.16,15.59
19.408000,-74.7500,9,97.74,2.16,15.59
19.418000,-77.5000,9,97.74,2.16,15.59
19.428000,-75.1250,9,97.74,2.16,15.59
19.438000,-73.6250,9,97.74,2.16,15.59
19.448000,-76.0000,9,97.74,2.16,15.59
19.458000,-74.2500,9,97.74,2.16,15.59
19.468000,-76.5000,9,97.74,2.16,15.59
19.478000,-74.5000,9,97.74,2.16,15.59
19.488000,-76.3750,9,97.74,2.16,15.59
19.498000,-74.3750,9,97.74,2.16,15.59
19.508000,-76.2500,9,97.74,2.16,15.59
19.518000,-74.7500,9,97.74,2.16,15.59
19.528000,-75.6250,9,97.74,2.16,15.59
19.538000,-73.7500,9,97.74,2.16,15.59
19.548000,-75.5000,9,97.74,2.16,15.59
19.558000,-73.6250,9,97.74,2.16,15.59
19.568000,-75.6250,9,97.74,2.16,15.59
19.578000,-74.5000,9,97.74,2.16,15.59
19.588000,-76.2500,9,97.74,2.16,15.59
19.598000,-73.7500,9,97.74,2.16,15.59
19.608000,-75.3750,9,97.74,2.16,15.59
19.618000,-73.5000,9,97.74,2.16,15.59
19.628000,-74.1250,9,97.74,2.16,15.59
19.638000,-70.8750,9,97.74,2.16,15.59
19.648000,-73.7500,9,97.74,2.16,15.59
19.658000,-71.3750,9,97.74,2.16,15.59
19.668000,-75.3750,9,97.74,2.16,15.59
19.678000,-72.7500,9,97.74,2.16,15.59
19.688000,-77.1250,9,97.74,2.16,15.59
19.698000,-74.0000,9,97.74,2.16,15.59
19.708000,-77.1250,9,97.74,2.16,15.59
19.718000,-74.3750,9,97.74,2.16,15.59
19.728000,-77.8750,9,97.74,2.16,15.59
19.738000,-73.6250,9,97.74,2.16,15.59
19.748000,-77.3750,9,97.74,2.16,15.59
19.758000,-73.2500,9,97.74,2.16,15.59
19.768000,-76.8750,9,97.74,2.16,15.59
19.778000,-66.5000,9,97.74,2.16,15.59
19.788000,-58.2500,9,97.74,2.16,15.59
19.798000,-58.8750,9,97.74,2.16,15.59
19.808000,-83.8750,9,97.74,2.16,15.59
19.818000,-90.8750,9,97.74,2.16,15.59
19.828000,-78.2500,9,97.74,2.16,15.59
19.838000,-68.1250,9,97.74,2.16,15.59
19.848000,-73.1250,9,97.74,2.16,15.59
19.858000,-68.6250,9,97.74,2.16,15.59
19.868000,-73.7500,9,97.74,2.16,15.59
19.878000,-68.2500,9,97.74,2.16,15.59
19.888000,-73.5000,9,97.74,2.16,15.59
19.898000,-67.6250,9,97.74,2.16,15.59
19.908000,-72.0000,9,97.74,2.16,15.59
19.918000,-66.1250,9,97.74,2.16,15.59
19.928000,-71.1250,9,97.74,2.16,15.59
19.938000,-64.8750,9,97.74,2.16,15.59
19.948000,-68.6250,9,97.74,2.16,15.59
19.958000,-61.8750,9,97.74,2.16,15.59
19.968000,-64.6250,9,97.74,2.16,15.59
19.978000,-58.1250,9,97.74,2.16,15.59
19.988000,-61.2500,9,97.74,2.16,15.59
19.998000,-54.7500,9,97.74,2.16,15.59
20.008000,-58.2500,9,97.74,2.16,15.59
20.018000,-54.6250,9,97.74,2.16,15.59
20.028000,-61.1250,9,97.74,2.16,15.59
20.038000,-60.7500,9,97.74,2.16,15.59
20.048000,-69.0000,9,97.74,2.16,15.59
20.058000,-69.8750,9,97.74,2.16,15.59
20.068000,-76.2500,9,97.74,2.16,15.59
20.078000,-74.7500,9,97.74,2.16,15.59
20.088000,-79.5000,9,97.74,2.16,15.59
20.098000,-77.1250,9,97.74,2.16,15.59
20.108000,-80.6250,9,97.74,2.16,15.59
20.118000,-77.1250,9,97.74,2.16,15.59
20.128000,-80.2500,9,97.74,2.16,15.59
20.138000,-77.7500,9,97.74,2.16,15.59
20.148000,-80.6250,9,97.74,2.16,15.59
20.158000,-80.5000,9,97.74,2.16,15.59
20.168000,-80.7500,9,97.74,2.16,15.59
20.178000,-84.2500,9,97.74,2.16,15.59
20.188000,-77.0000,9,97.74,2.16,15.59
20.198000,-81.6250,9,97.74,2.16,15.59
20.208000,-81.3750,9,97.74,2.16,15.59
20.218000,-85.7500,9,97.74,2.16,15.59
20.228000,-84.8750,9,97.74,2.16,15.59
20.238000,-81.2500,9,97.74,2.16,15.59
20.248000,-82.7500,9,97.74,2.16,15.59
20.258000,-75.8750,9,97.74,2.16,15.59
20.268000,-78.5000,9,97.74,2.16,15.59
20.278000,-82.6250,9,97.74,2.16,15.59
20.288000,-79.0000,9,97.74,2.16,15.59
20.298000,-81.6250,9,97.74,2.16,15.59
20.308000,-79.6250,9,97.74,2.16,15.59
20.318000,-82.5000,9,97.74,2.16,15.59
20.328000,-79.2500,9,97.74,2.16,15.59
20.338000,-76.2500,9,97.74,2.16,15.59
20.348000,-62.0000,9,97.74,2.16,15.59
20.358000,-69.6250,9,97.74,2.16,15.59
20.368000,-82.6250,9,97.74,2.16,15.59
20.378000,-78.7500,9,97.74,2.16,15.59
20.388000,-74.5000,9,97.74,2.16,15.59
20.398000,-69.0000,9,97.74,2.16,15.59
20.408000,-65.6250,9,97.74,2.16,15.59
20.418000,-79.2500,9,97.74,2.16,15.59
20.428000,-84.5000,9,97.74,2.16,15.59
20.438000,-82.8750,9,97.74,2.16,15.59
20.448000,-85.6250,9,97.74,2.16,15.59
20.458000,-85.6250,9,97.74,2.16,15.59
20.468000,-87.5000,9,97.74,2.16,15.59
20.478000,-80.5000,9,97.74,2.16,15.59
20.488000,-87.6250,9,97.74,2.16,15.59
20.498000,-85.7500,9,97.74,2.16,15.59
20.508000,-81.7500,9,97.74,2.16,15.59
20.518000,-76.8750,9,97.74,2.16,15.59
20.528000,-80.8750,9,97.74,2.16,15.59
20.538000,-77.2500,9,97.74,2.16,15.59
20.548000,-81.8750,9,97.74,2.16,15.59
20.558000,-78.7500,9,97.74,2.16,15.59
20.568000,-83.2500,9,97.74,2.16,15.59
20.578000,-79.7500,9,97.74,2.16,15.59
20.588000,-84.3750,9,97.74,2.16,15.59
20.598000,-80.0000,9,97.74,2.16,15.59
20.608000,-83.0000,9,97.74,2.16,15.59
20.618000,-85.7500,9,97.74,2.16,15.59
20.628000,-64.1250,9,97.74,2.16,15.59
20.638000,-91.2500,9,97.74,2.16,15.59
20.648000,-77.6250,9,97.74,2.16,15.59
20.658000,-79.0000,9,97.74,2.16,15.59
20.668000,-68.8750,9,97.74,2.16,15.59
20.678000,-72.1250,9,97.74,2.16,15.59
20.688000,-65.7500,9,97.74,2.16,15.59
20.698000,-66.0000,9,97.74,2.16,15.59
20.708000,-73.5000,9,97.74,2.16,15.59
20.718000,-84.1250,9,97.74,2.16,15.59
20.728000,-88.2500,9,97.74,2.16,15.59
20.738000,-84.3750,9,97.74,2.16,15.59
20.748000,-81.6250,9,97.74,2.16,15.59
20.758000,-87.0000,9,97.74,2.16,15.59
20.768000,-84.1250,9,97.74,2.16,15.59
20.778000,-89.7500,9,97.74,2.16,15.59
20.788000,-86.0000,9,97.74,2.16,15.59
20.798000,-85.8750,9,97.74,2.16,15.59
20.808000,-84.7500,9,97.74,2.16,15.59
20.818000,-85.5000,9,97.74,2.16,15.59
20.828000,-84.0000,9,97.74,2.16,15.59
20.838000,-83.6250,9,97.74,2.16,15.59
20.848000,-80.5000,9,97.74,2.16,15.59
20.858000,-85.0000,9,97.74,2.16,15.59
20.868000,-81.3750,9,97.74,2.16,15.59
20.878000,-85.6250,9,97.74,2.16,15.59
20.888000,-81.0000,9,97.74,2.16,15.59
20.898000,-85.3750,9,97.74,2.16,15.59
20.908000,-81.6250,9,97.74,2.16,15.59
20.918000,-86.7500,9,97.74,2.16,15.59
20.928000,-87.2500,9,97.74,2.16,15.59
20.938000,-81.1250,9,97.74,2.16,15.59
20.948000,-81.0000,9,97.74,2.16,15.59
20.958000,-76.7500,9,97.74,2.16,15.59
20.968000,-78.5000,9,97.74,2.16,15.59
20.978000,-80.2500,9,97.74,2.16,15.59
20.988000,-73.2500,9,97.74,2.16,15.59
20.998000,-79.5000,9,97.74,2.16,15.59
21.008000,-86.8750,9,97.74,2.16,15.59
21.018000,-86.1250,9,97.74,2.16,15.59
21.028000,-82.7500,9,97.74,2.16,15.59
21.038000,-85.0000,9,97.74,2.16,15.59
21.048000,-83.1250,9,97.74,2.16,15.59
21.058000,-84.6250,9,97.74,2.16,15.59
21.068000,-83.0000,9,97.74,2.16,15.59
21.078000,-83.2500,9,97.74,2.16,15.59
21.088000,-84.7500,9,97.74,2.16,15.59
21.098000,-83.6250,9,97.74,2.16,15.59
21.108000,-84.5000,9,97.74,2.16,15.59
21.118000,-84.3750,9,97.74,2.16,15.59
21.128000,-83.8750,9,97.74,2.16,15.59
21.138000,-83.5000,9,97.74,2.16,15.59
21.148000,-81.7500,9,97.74,2.16,15.59
21.158000,-81.2500,9,97.74,2.16,15.59
21.168000,-81.5000,9,97.74,2.16,15.59
21.178000,-81.7500,9,97.74,2.16,15.59
21.188000,-80.5000,9,97.74,2.16,15.59
21.198000,-81.2500,9,97.74,2.16,15.59
21.208000,-80.3750,9,97.74,2.16,15.59
21.218000,-76.7500,9,97.74,2.16,15.59
21.228000,-79.7500,9,97.74,2.16,15.59
21.238000,-80.8750,9,97.74,2.16,15.59
21.248000,-80.3750,9,97.74,2.16,15.59
21.258000,-74.6250,9,97.74,2.16,15.59
21.268000,-74.8750,9,97.74,2.16,15.59
21.278000,-75.3750,9,97.74,2.16,15.59
21.288000,-79.1250,9,97.74,2.16,15.59
21.298000,-79.5000,9,97.74,2.16,15.59
21.308000,-79.2500,9,97.74,2.16,15.59
21.318000,-78.2500,9,97.74,2.16,15.59
21.328000,-78.3750,9,97.74,2.16,15.59
21.338000,-78.7500,9,97.74,2.16,15.59
21.348000,-78.8750,9,97.74,2.16,15.59
21.358000,-78.6250,9,97.74,2.16,15.59
21.368000,-78.1250,9,97.74,2.16,15.59
21.378000,-78.1250,9,97.74,2.16,15.59
21.388000,-78.1250,9,97.74,2.16,15.59
21.398000,-78.5000,9,97.74,2.16,15.59
21.408000,-77.3750,9,97.74,2.16,15.59
21.418000,-77.5000,9,97.74,2.16,15.59
21.428000,-77.6250,9,97.74,2.16,15.59
21.438000,-77.3750,9,97.74,2.16,15.59
21.448000,-77.2500,9,97.74,2.16,15.59
21.458000,-77.0000,9,97.74,2.16,15.59
21.468000,-75.6250,9,97.74,2.16,15.59
21.478000,-76.7500,9,97.74,2.16,15.59
21.488000,-77.3750,9,97.74,2.16,15.59
21.498000,-76.5000,9,97.74,2.16,15.59
21.508000,-73.7500,9,97.74,2.16,15.59
21.518000,-75.5000,9,97.74,2.16,15.59
21.528000,-77.2500,9,97.74,2.16,15.59
21.538000,-77.1250,9,97.74,2.16,15.59
21.548000,-76.6250,9,97.74,2.16,15.59
21.558000,-76.7500,9,97.74,2.16,15.59
21.568000,-76.3750,9,97.74,2.16,15.59
21.578000,-76.7500,9,97.74,2.16,15.59
21.588000,-75.8750,9,97.74,2.16,15.59
21.598000,-76.5000,9,97.74,2.16,15.59
21.608000,-76.1250,9,97.74,2.16,15.59
21.618000,-76.7500,9,97.74,2.16,15.59
21.628000,-76.6250,9,97.74,2.16,15.59
21.638000,-76.0000,9,97.74,2.16,15.59
21.648000,-76.2500,9,97.74,2.16,15.59
21.658000,-75.8750,9,97.74,2.16,15.59
21.668000,-76.1250,9,97.74,2.16,15.59
21.678000,-76.5000,9,97.74,2.16,15.59
21.688000,-76.6250,9,97.74,2.16,15.59
21.698000,-75.5000,9,97.74,2.16,15.59
21.708000,-75.7500,9,97.74,2.16,15.59
21.718000,-76.7500,9,97.74,2.16,15.59
21.728000,-75.8750,9,97.74,2.16,15.59
21.738000,-76.1250,9,97.74,2.16,15.59
21.748000,-76.5000,9,97.74,2.16,15.59
21.758000,-75.0000,9,97.74,2.16,15.59
21.768000,-76.6250,9,97.74,2.16,15.59
21.778000,-76.3750,9,97.74,2.16,15.59
21.788000,-76.5000,9,97.74,2.16,15.59
21.798000,-75.8750,9,97.74,2.16,15.59
21.808000,-76.6250,9,97.74,2.16,15.59
21.818000,-76.2500,9,97.74,2.16,15.59
21.828000,-76.0000,9,97.74,2.16,15.59
21.838000,-75.6250,9,97.74,2.16,15.59
21.848000,-75.6250,9,97.74,2.16,15.59
21.858000,-76.0000,9,97.74,2.16,15.59
21.868000,-75.6250,9,97.74,2.16,15.59
21.878000,-75.8750,9,97.74,2.16,15.59
21.888000,-76.3750,9,97.74,2.16,15.59
21.898000,-75.5000,9,97.74,2.16,15.59
21.908000,-76.1250,9,97.74,2.16,15.59
21.918000,-76.7500,9,97.74,2.16,15.59
21.928000,-77.3750,9,97.74,2.16,15.59
21.938000,-76.6250,9,97.74,2.16,15.59
21.948000,-76.0000,9,97.74,2.16,15.59
21.958000,-76.3750,9,97.74,2.16,15.59
21.968000,-76.1250,9,97.74,2.16,15.59
21.978000,-76.3750,9,97.74,2.16,15.59
21.988000,-76.1250,9,97.74,2.16,15.59
21.998000,-75.7500,9,97.74,2.16,15.59
22.008000,-75.6250,9,97.74,2.16,15.59
22.018000,-75.7500,9,97.74,2.16,15.59
22.028000,-75.5000,9,97.74,2.16,15.59
22.038000,-74.7500,9,97.74,2.16,15.59
22.048000,-75.2500,9,97.74,2.16,15.59
22.058000,-76.3750,9,97.74,2.16,15.59
22.068000,-75.6250,9,97.74,2.16,15.59
22.078000,-75.2500,9,97.74,2.16,15.59
22.088000,-75.2500,9,97.74,2.16,15.59
22.098000,-75.2500,9,97.74,2.16,15.59
22.108000,-75.7500,9,97.74,2.16,15.59
22.118000,-75.8750,9,97.74,2.16,15.59
22.128000,-76.3750,9,97.74,2.16,15.59
22.138000,-76.5000,9,97.74,2.16,15.59
22.148000,-75.8750,9,97.74,2.16,15.59
22.158000,-76.0000,9,97.74,2.16,15.59
22.168000,-76.3750,9,97.74,2.16,15.59
22.178000,-76.2500,9,97.74,2.16,15.59
22.188000,-76.3750,9,97.74,2.16,15.59
22.198000,-76.6250,9,97.74,2.16,15.59
22.208000,-76.2500,9,97.74,2.16,15.59
22.218000,-77.1250,9,97.74,2.16,15.59
22.228000,-76.1250,9,97.74,2.16,15.59
22.238000,-76.6250,9,97.74,2.16,15.59
22.248000,-76.3750,9,97.74,2.16,15.59
22.258000,-76.6250,9,97.74,2.16,15.59
22.268000,-76.1250,9,97.74,2.16,15.59
22.278000,-76.7500,9,97.74,2.16,15.59
22.288000,-76.5000,9,97.74,2.16,15.59
22.298000,-76.5000,11,111.85,1.33,12.36
22.308000,-76.6250,11,111.85,1.33,12.36
22.318000,-76.2500,11,111.85,1.33,12.36
22.328000,-76.2500,11,111.85,1.33,12.36
22.338000,-76.5000,11,111.85,1.33,12.36
22.348000,-76.3750,11,111.85,1.33,12.36
22.358000,-76.2500,11,111.85,1.33,12.36
22.368000,-76.3750,11,111.85,1.33,12.36
22.378000,-76.6250,11,111.85,1.33,12.36
22.388000,-76.1250,11,111.85,1.33,12.36
22.398000,-76.6250,11,111.85,1.33,12.36
22.408000,-76.2500,11,111.85,1.33,12.36
22.418000,-76.6250,11,111.85,1.33,12.36
22.428000,-76.5000,11,111.85,1.33,12.36
22.438000,-76.7500,11,111.85,1.33,12.36
22.448000,-76.2500,11,111.85,1.33,12.36
22.458000,-76.7500,11,111.85,1.33,12.36
22.468000,-76.2500,11,111.85,1.33,12.36
22.478000,-76.6250,11,111.85,1.33,12.36
22.488000,-76.5000,11,111.85,1.33,12.36
22.498000,-76.6250,11,111.85,1.33,12.36
22.508000,-75.8750,11,111.85,1.33,12.36
22.518000,-76.5000,11,111.85,1.33,12.36
22.528000,-76.1250,11,111.85,1.33,12.36
22.538000,-77.2500,11,111.85,1.33,12.36
22.548000,-76.5000,11,111.85,1.33,12.36
22.558000,-76.8750,11,111.85,1.33,12.36
22.568000,-76.2500,11,111.85,1.33,12.36
22.578000,-75.6250,11,111.85,1.33,12.36
22.588000,-75.5000,11,111.85,1.33,12.36
22.598000,-76.2500,11,111.85,1.33,12.36
22.608000,-76.1250,11,111.85,1.33,12.36
22.618000,-76.3750,11,111.85,1.33,12.36
22.628000,-76.1250,11,111.85,1.33,12.36
22.638000,-76.2500,11,111.85,1.33,12.36
22.648000,-75.8750,11,111.85,1.33,12.36
22.658000,-76.3750,11,111.85,1.33,12.36
22.668000,-76.2500,11,111.85,1.33,12.36
22.678000,-76.7500,11,111.85,1.33,12.36
22.688000,-76.1250,11,111.85,1.33,12.36
22.698000,-77.0000,11,111.85,1.33,12.36
22.708000,-76.2500,11,111.85,1.33,12.36
22.718000,-76.6250,11,111.85,1.33,12.36
22.728000,-76.5000,11,111.85,1.33,12.36
22.738000,-76.6250,11,111.85,1.33,12.36
22.748000,-77.0000,11,111.85,1.33,12.36
22.758000,-77.1250,11,111.85,1.33,12.36
22.768000,-76.8750,11,111.85,1.33,12.36
22.778000,-77.2500,11,111.85,1.33,12.36
22.788000,-77.0000,11,111.85,1.33,12.36
22.798000,-77.0000,11,111.85,1.33,12.36
22.808000,-76.2500,11,111.85,1.33,12.36
22.818000,-77.1250,11,111.85,1.33,12.36
22.828000,-76.8750,11,111.85,1.33,12.36
22.838000,-76.5000,11,111.85,1.33,12.36
22.848000,-76.0000,11,111.85,1.33,12.36
22.858000,-76.3750,11,111.85,1.33,12.36
22.868000,-76.0000,11,111.85,1.33,12.36
22.878000,-76.1250,11,111.85,1.33,12.36
22.888000,-75.7500,11,111.85,1.33,12.36
22.898000,-76.0000,11,111.85,1.33,12.36
22.908000,-76.2500,11,111.85,1.33,12.36
22.918000,-76.3750,11,111.85,1.33,12.36
22.928000,-75.6250,11,111.85,1.33,12.36
22.938000,-76.0000,11,111.85,1.33,12.36
22.948000,-76.0000,11,111.85,1.33,12.36
22.958000,-76.6250,11,111.85,1.33,12.36
22.968000,-76.1250,11,111.85,1.33,12.36
22.978000,-76.0000,11,111.85,1.33,12.36
22.988000,-75.8750,11,111.85,1.33,12.36
22.998000,-76.1250,11,111.85,1.33,12.36
23.008000,-76.1250,11,111.85,1.33,12.36
23.018000,-76.0000,11,111.85,1.33,12.36
23.028000,-75.6250,11,111.85,1.33,12.36
23.038000,-76.0000,11,111.85,1.33,12.36
23.048000,-75.3750,11,111.85,1.33,12.36
23.058000,-75.8750,11,111.85,1.33,12.36
23.068000,-75.3750,11,111.85,1.33,12.36
23.078000,-75.7500,11,111.85,1.33,12.36
23.088000,-75.6250,11,111.85,1.33,12.36
23.098000,-75.2500,11,111.85,1.33,12.36
23.108000,-75.6250,11,111.85,1.33,12.36
23.118000,-75.3750,11,111.85,1.33,12.36
23.128000,-76.5000,11,111.85,1.33,12.36
23.138000,-75.3750,11,111.85,1.33,12.36
23.148000,-75.8750,11,111.85,1.33,12.36
23.158000,-75.5000,11,111.85,1.33,12.36
23.168000,-76.1250,11,111.85,1.33,12.36
23.178000,-76.5000,11,111.85,1.33,12.36
23.188000,-76.0000,11,111.85,1.33,12.36
23.198000,-76.5000,11,111.85,1.33,12.36
23.208000,-76.0000,11,111.85,1.33,12.36
23.218000,-76.5000,11,111.85,1.33,12.36
23.228000,-76.0000,11,111.85,1.33,12.36
23.238000,-76.5000,11,111.85,1.33,12.36
23.248000,-76.6250,11,111.85,1.33,12.36
23.258000,-76.2500,11,111.85,1.33,12.36
23.268000,-78.3750,11,111.85,1.33,12.36
23.278000,-75.8750,11,111.85,1.33,12.36
23.288000,-78.1250,11,111.85,1.33,12.36
23.298000,-76.6250,11,111.85,1.33,12.36
23.308000,-77.0000,11,111.85,1.33,12.36
23.318000,-76.5000,11,111.85,1.33,12.36
23.328000,-76.6250,11,111.85,1.33,12.36
23.338000,-77.1250,11,111.85,1.33,12.36
23.348000,-77.5000,11,111.85,1.33,12.36
23.358000,-77.6250,11,111.85,1.33,12.36
23.368000,-77.5000,11,111.85,1.33,12.36
23.378000,-76.5000,11,111.85,1.33,12.36
23.388000,-76.1250,11,111.85,1.33,12.36
23.398000,-76.6250,11,111.85,1.33,12.36
23.408000,-77.3750,11,111.85,1.33,12.36
23.418000,-78.0000,11,111.85,1.33,12.36
23.428000,-77.2500,11,111.85,1.33,12.36
23.438000,-76.6250,11,111.85,1.33,12.36
23.448000,-77.6250,11,111.85,1.33,12.36
23.458000,-76.7500,11,111.85,1.33,12.36
23.468000,-77.0000,11,111.85,1.33,12.36
23.478000,-75.1250,11,111.85,1.33,12.36
23.488000,-77.2500,11,111.85,1.33,12.36
23.498000,-77.7500,11,111.85,1.33,12.36
23.508000,-77.6250,11,111.85,1.33,12.36
23.518000,-76.7500,11,111.85,1.33,12.36
23.528000,-77.7500,11,111.85,1.33,12.36
23.538000,-76.7500,11,111.85,1.33,12.36
23.548000,-77.8750,11,111.85,1.33,12.36
23.558000,-77.5000,11,111.85,1.33,12.36
23.568000,-78.3750,11,111.85,1.33,12.36
23.578000,-77.8750,11,111.85,1.33,12.36
23.588000,-78.1250,11,111.85,1.33,12.36
23.598000,-77.2500,11,111.85,1.33,12.36
23.608000,-77.7500,11,111.85,1.33,12.36
23.618000,-78.0000,11,111.85,1.33,12.36
23.628000,-77.1250,11,111.85,1.33,12.36
23.638000,-77.2500,11,111.85,1.33,12.36
23.648000,-77.0000,11,111.85,1.33,12.36
23.658000,-76.6250,11,111.85,1.33,12.36
23.668000,-76.7500,11,111.85,1.33,12.36
23.678000,-76.5000,11,111.85,1.33,12.36
23.688000,-77.6250,11,111.85,1.33,12.36
23.698000,-76.6250,11,111.85,1.33,12.36
23.708000,-77.0000,11,111.85,1.33,12.36
23.718000,-76.6250,11,111.85,1.33,12.36
23.728000,-77.0000,11,111.85,1.33,12.36
23.738000,-76.5000,11,111.85,1.33,12.36
23.748000,-77.2500,11,111.85,1.33,12.36
23.758000,-76.7500,11,111.85,1.33,12.36
23.768000,-77.0000,11,111.85,1.33,12.36
23.778000,-76.8750,11,111.85,1.33,12.36
23.788000,-76.8750,11,111.85,1.33,12.36
23.798000,-77.0000,11,111.85,1.33,12.36
23.808000,-77.3750,11,111.85,1.33,12.36
23.818000,-76.7500,11,111.85,1.33,12.36
23.828000,-77.3750,11,111.85,1.33,12.36
23.838000,-77.0000,11,111.85,1.33,12.36
23.848000,-77.1250,11,111.85,1.33,12.36
23.858000,-77.0000,11,111.85,1.33,12.36
23.868000,-77.1250,11,111.85,1.33,12.36
23.878000,-77.0000,11,111.85,1.33,12.36
23.888000,-77.1250,11,111.85,1.33,12.36
23.898000,-76.8750,11,111.85,1.33,12.36
23.908000,-77.1250,11,111.85,1.33,12.36
23.918000,-76.6250,11,111.85,1.33,12.36
23.928000,-77.2500,11,111.85,1.33,12.36
23.938000,-77.1250,11,111.85,1.33,12.36
23.948000,-77.0000,11,111.85,1.33,12.36
23.958000,-77.0000,11,111.85,1.33,12.36
23.968000,-77.1250,11,111.85,1.33,12.36
23.978000,-77.3750,11,111.85,1.33,12.36
23.988000,-77.1250,11,111.85,1.33,12.36
23.998000,-77.2500,11,111.85,1.33,12.36
24.008000,-77.2500,11,111.85,1.33,12.36
24.018000,-76.7500,11,111.85,1.33,12.36
24.028000,-77.3750,11,111.85,1.33,12.36
24.038000,-76.7500,11,111.85,1.33,12.36
24.048000,-77.1250,11,111.85,1.33,12.36
24.058000,-76.6250,11,111.85,1.33,12.36
24.068000,-76.8750,11,111.85,1.33,12.36
24.078000,-77.3750,11,111.85,1.33,12.36
24.088000,-77.2500,11,111.85,1.33,12.36
24.098000,-76.5000,11,111.85,1.33,12.36
24.108000,-77.2500,11,111.85,1.33,12.36
24.118000,-78.2500,11,111.85,1.33,12.36
24.128000,-75.8750,11,111.85,1.33,12.36
24.138000,-77.5000,11,111.85,1.33,12.36
24.148000,-77.5000,11,111.85,1.33,12.36
24.158000,-77.3750,11,111.85,1.33,12.36
24.168000,-77.2500,11,111.85,1.33,12.36
24.178000,-77.5000,11,111.85,1.33,12.36
24.188000,-77.3750,11,111.85,1.33,12.36
24.198000,-76.7500,11,111.85,1.33,12.36
24.208000,-77.1250,11,111.85,1.33,12.36
24.218000,-77.1250,11,111.85,1.33,12.36
24.228000,-76.7500,11,111.85,1.33,12.36
24.238000,-76.7500,11,111.85,1.33,12.36
24.248000,-77.2500,11,111.85,1.33,12.36
24.258000,-77.1250,11,111.85,1.33,12.36
24.268000,-77.1250,11,111.85,1.33,12.36
24.278000,-76.6250,11,111.85,1.33,12.36
24.288000,-77.0000,11,111.85,1.33,12.36
24.298000,-76.6250,11,111.85,1.33,12.36
24.308000,-76.8750,11,111.85,1.33,12.36
24.318000,-77.1250,11,111.85,1.33,12.36
24.328000,-76.5000,11,111.85,1.33,12.36
24.338000,-77.5000,11,111.85,1.33,12.36
24.348000,-76.8750,11,111.85,1.33,12.36
24.358000,-76.7500,11,111.85,1.33,12.36
24.368000,-77.1250,11,111.85,1.33,12.36
24.378000,-76.8750,11,111.85,1.33,12.36
24.388000,-76.7500,11,111.85,1.33,12.36
24.398000,-77.7500,11,111.85,1.33,12.36
24.408000,-78.2500,11,111.85,1.33,12.36
24.418000,-78.1250,11,111.85,1.33,12.36
24.428000,-78.5000,11,111.85,1.33,12.36
24.438000,-77.1250,11,111.85,1.33,12.36
24.448000,-76.7500,11,111.85,1.33,12.36
24.458000,-76.5000,11,111.85,1.33,12.36
24.468000,-76.5000,11,111.85,1.33,12.36
24.478000,-77.1250,11,111.85,1.33,12.36
24.488000,-77.0000,11,111.85,1.33,12.36
24.498000,-77.0000,11,111.85,1.33,12.36
24.508000,-76.8750,11,111.85,1.33,12.36
24.518000,-76.8750,11,111.85,1.33,12.36
24.528000,-76.5000,11,111.85,1.33,12.36
24.538000,-77.1250,11,111.85,1.33,12.36
24.548000,-77.2500,11,111.85,1.33,12.36
24.558000,-76.8750,11,111.85,1.33,12.36
24.568000,-75.1250,11,111.85,1.33,12.36
24.578000,-77.5000,11,111.85,1.33,12.36
24.588000,-76.3750,11,111.85,1.33,12.36
24.598000,-76.0000,11,111.85,1.33,12.36
24.608000,-77.3750,11,111.85,1.33,12.36
24.618000,-77.2500,11,111.85,1.33,12.36
24.628000,-76.6250,11,111.85,1.33,12.36
24.638000,-76.6250,11,111.85,1.33,12.36
24.648000,-78.3750,11,111.85,1.33,12.36
24.658000,-78.2500,11,111.85,1.33,12.36
24.668000,-78.2500,11,111.85,1.33,12.36
24.678000,-78.1250,11,111.85,1.33,12.36
24.688000,-78.5000,11,111.85,1.33,12.36
24.698000,-77.6250,11,111.85,1.33,12.36
24.708000,-77.8750,11,111.85,1.33,12.36
24.718000,-75.7500,11,111.85,1.33,12.36
24.728000,-75.5000,11,111.85,1.33,12.36
24.738000,-76.8750,11,111.85,1.33,12.36
24.748000,-76.7500,11,111.85,1.33,12.36
24.758000,-76.5000,11,111.85,1.33,12.36
24.768000,-76.5000,11,111.85,1.33,12.36
24.778000,-77.2500,11,111.85,1.33,12.36
24.788000,-76.8750,11,111.85,1.33,12.36
24.798000,-76.8750,11,111.85,1.33,12.36
24.808000,-76.0000,11,111.85,1.33,12.36
24.818000,-76.1250,11,111.85,1.33,12.36
24.828000,-76.6250,11,111.85,1.33,12.36
24.838000,-75.8750,11,111.85,1.33,12.36
24.848000,-77.1250,11,111.85,1.33,12.36
24.858000,-76.6250,11,111.85,1.33,12.36
24.868000,-76.6250,11,111.85,1.33,12.36
24.878000,-73.8750,11,111.85,1.33,12.36
24.888000,-75.1250,11,111.85,1.33,12.36
24.898000,-73.6250,11,111.85,1.33,12.36
24.908000,-76.7500,11,111.85,1.33,12.36
24.918000,-76.6250,11,111.85,1.33,12.36
24.928000,-76.0000,11,111.85,1.33,12.36
24.938000,-75.3750,11,111.85,1.33,12.36
24.948000,-77.6250,11,111.85,1.33,12.36
24.958000,-76.8750,11,111.85,1.33,12.36
24.968000,-76.1250,11,111.85,1.33,12.36
24.978000,-77.8750,11,111.85,1.33,12.36
24.988000,-77.6250,11,111.85,1.33,12.36
24.998000,-74.6250,11,111.85,1.33,12.36
25.008000,-75.5000,11,111.85,1.33,12.36
25.018000,-76.0000,11,111.85,1.33,12.36
25.028000,-71.5000,11,111.85,1.33,12.36
25.038000,-77.3750,11,111.85,1.33,12.36
25.048000,-74.7500,11,111.85,1.33,12.36
25.058000,-76.0000,11,111.85,1.33,12.36
25.068000,-74.2500,11,111.85,1.33,12.36
25.078000,-75.5000,11,111.85,1.33,12.36
25.088000,-77.8750,11,111.85,1.33,12.36
25.098000,-73.0000,11,111.85,1.33,12.36
25.108000,-76.8750,11,111.85,1.33,12.36
25.118000,-77.3750,11,111.85,1.33,12.36
25.128000,-78.5000,11,111.85,1.33,12.36
25.138000,-77.6250,11,111.85,1.33,12.36
25.148000,-77.7500,11,111.85,1.33,12.36
25.158000,-74.3750,11,111.85,1.33,12.36
25.168000,-78.0000,11,111.85,1.33,12.36
25.178000,-79.1250,11,111.85,1.33,12.36
25.188000,-76.3750,11,111.85,1.33,12.36
25.198000,-77.0000,11,111.85,1.33,12.36
25.208000,-77.1250,11,111.85,1.33,12.36
25.218000,-77.5000,11,111.85,1.33,12.36
25.228000,-75.8750,11,111.85,1.33,12.36
25.238000,-77.8750,11,111.85,1.33,12.36
25.248000,-75.8750,11,111.85,1.33,12.36
25.258000,-77.8750,11,111.85,1.33,12.36
25.268000,-78.5000,11,111.85,1.33,12.36
25.278000,-78.0000,11,111.85,1.33,12.36
25.288000,-78.0000,11,111.85,1.33,12.36
25.298000,-76.6250,11,111.85,1.33,12.36
25.308000,-78.5000,11,111.85,1.33,12.36
25.318000,-76.7500,11,111.85,1.33,12.36
25.328000,-76.5000,11,111.85,1.33,12.36
25.338000,-78.0000,11,111.85,1.33,12.36
25.348000,-78.1250,11,111.85,1.33,12.36
25.358000,-77.8750,11,111.85,1.33,12.36
25.368000,-78.3750,11,111.85,1.33,12.36
25.378000,-78.6250,11,111.85,1.33,12.36
25.388000,-78.7500,11,111.85,1.33,12.36
25.398000,-78.1250,11,111.85,1.33,12.36
25.408000,-76.7500,11,111.85,1.33,12.36
25.418000,-78.5000,11,111.85,1.33,12.36
25.428000,-78.3750,11,111.85,1.33,12.36
25.438000,-79.1250,11,111.85,1.33,12.36
25.448000,-77.7500,11,111.85,1.33,12.36
25.458000,-78.3750,11,111.85,1.33,12.36
25.468000,-79.0000,11,111.85,1.33,12.36
25.478000,-77.7500,11,111.85,1.33,12.36
25.488000,-77.5000,11,111.85,1.33,12.36
25.498000,-75.8750,11,111.85,1.33,12.36
25.508000,-78.8750,11,111.85,1.33,12.36
25.518000,-78.7500,11,111.85,1.33,12.36
25.528000,-76.7500,11,111.85,1.33,12.36
25.538000,-78.7500,11,111.85,1.33,12.36
25.548000,-77.6250,11,111.85,1.33,12.36
25.558000,-78.3750,11,111.85,1.33,12.36
25.568000,-77.8750,11,111.85,1.33,12.36
25.578000,-77.1250,11,111.85,1.33,12.36
25.588000,-75.8750,11,111.85,1.33,12.36
25.598000,-78.0000,11,111.85,1.33,12.36
25.608000,-78.8750,11,111.85,1.33,12.36
25.618000,-83.0000,11,111.85,1.33,12.36
25.628000,-77.7500,11,111.85,1.33,12.36
25.638000,-78.7500,11,111.85,1.33,12.36
25.648000,-78.3750,11,111.85,1.33,12.36
25.658000,-74.8750,11,111.85,1.33,12.36
25.668000,-76.8750,11,111.85,1.33,12.36
25.678000,-78.5000,11,111.85,1.33,12.36
25.688000,-77.7500,11,111.85,1.33,12.36
25.698000,-76.7500,11,111.85,1.33,12.36
25.708000,-77.8750,11,111.85,1.33,12.36
25.718000,-78.8750,11,111.85,1.33,12.36
25.728000,-78.1250,11,111.85,1.33,12.36
25.738000,-78.2500,11,111.85,1.33,12.36
25.748000,-78.6250,11,111.85,1.33,12.36
25.758000,-79.5000,11,111.85,1.33,12.36
25.768000,-76.7500,11,111.85,1.33,12.36
25.778000,-77.6250,11,111.85,1.33,12.36
25.788000,-74.0000,11,111.85,1.33,12.36
25.798000,-76.6250,11,111.85,1.33,12.36
25.808000,-83.1250,11,111.85,1.33,12.36
25.818000,-77.7500,11,111.85,1.33,12.36
25.828000,-78.1250,11,111.85,1.33,12.36
25.838000,-79.5000,11,111.85,1.33,12.36
25.848000,-80.0000,11,111.85,1.33,12.36
25.858000,-76.5000,11,111.85,1.33,12.36
25.868000,-75.8750,11,111.85,1.33,12.36
25.878000,-77.5000,11,111.85,1.33,12.36
25.888000,-77.6250,11,111.85,1.33,12.36
25.898000,-77.6250,11,111.85,1.33,12.36
25.908000,-79.0000,11,111.85,1.33,12.36
25.918000,-80.0000,11,111.85,1.33,12.36
25.928000,-79.2500,11,111.85,1.33,12.36
25.938000,-79.0000,11,111.85,1.33,12.36
25.948000,-78.6250,11,111.85,1.33,12.36
25.958000,-76.8750,11,111.85,1.33,12.36
25.968000,-80.0000,11,111.85,1.33,12.36
25.978000,-79.0000,11,111.85,1.33,12.36
25.988000,-78.5000,11,111.85,1.33,12.36
25.998000,-79.2500,11,111.85,1.33,12.36
26.008000,-77.3750,11,111.85,1.33,12.36
26.018000,-78.2500,11,111.85,1.33,12.36
26.028000,-79.0000,11,111.85,1.33,12.36
26.038000,-78.8750,11,111.85,1.33,12.36
26.048000,-77.7500,11,111.85,1.33,12.36
26.058000,-78.2500,11,111.85,1.33,12.36
26.068000,-79.8750,11,111.85,1.33,12.36
26.078000,-77.3750,11,111.85,1.33,12.36
26.088000,-78.5000,11,111.85,1.33,12.36
26.098000,-78.7500,11,111.85,1.33,12.36
26.108000,-79.1250,11,111.85,1.33,12.36
26.118000,-80.0000,11,111.85,1.33,12.36
26.128000,-78.2500,11,111.85,1.33,12.36
26.138000,-77.8750,11,111.85,1.33,12.36
26.148000,-78.7500,11,111.85,1.33,12.36
26.158000,-77.8750,11,111.85,1.33,12.36
26.168000,-79.0000,11,111.85,1.33,12.36
26.178000,-79.1250,11,111.85,1.33,12.36
26.188000,-79.5000,11,111.85,1.33,12.36
26.198000,-79.2500,11,111.85,1.33,12.36
26.208000,-79.5000,11,111.85,1.33,12.36
26.218000,-78.8750,11,111.85,1.33,12.36
26.228000,-79.1250,11,111.85,1.33,12.36
26.238000,-79.1250,11,111.85,1.33,12.36
26.248000,-79.6250,11,111.85,1.33,12.36
26.258000,-79.8750,11,111.85,1.33,12.36
26.268000,-78.2500,11,111.85,1.33,12.36
26.278000,-78.6250,11,111.85,1.33,12.36
26.288000,-79.3750,11,111.85,1.33,12.36
26.298000,-78.8750,11,111.85,1.33,12.36
26.308000,-79.6250,11,111.85,1.33,12.36
26.318000,-78.8750,11,111.85,1.33,12.36
26.328000,-79.2500,11,111.85,1.33,12.36
26.338000,-78.8750,11,111.85,1.33,12.36
26.348000,-79.2500,11,111.85,1.33,12.36
26.358000,-79.1250,11,111.85,1.33,12.36
26.368000,-79.7500,11,111.85,1.33,12.36
26.378000,-79.2500,11,111.85,1.33,12.36
26.388000,-79.6250,11,111.85,1.33,12.36
26.398000,-79.2500,11,111.85,1.33,12.36
26.408000,-79.7500,13,123.63,-0.21,13.45
26.418000,-79.5000,13,123.63,-0.21,13.45
26.428000,-79.5000,13,123.63,-0.21,13.45
26.438000,-79.5000,13,123.63,-0.21,13.45
26.448000,-79.7500,13,123.63,-0.21,13.45
26.458000,-79.2500,13,123.63,-0.21,13.45
26.468000,-79.6250,13,123.63,-0.21,13.45
26.478000,-79.8750,13,123.63,-0.21,13.45
26.488000,-79.8750,13,123.63,-0.21,13.45
26.498000,-79.1250,13,123.63,-0.21,13.45
26.508000,-79.1250,13,123.63,-0.21,13.45
26.518000,-79.1250,13,123.63,-0.21,13.45
26.528000,-78.6250,13,123.63,-0.21,13.45
26.538000,-78.3750,13,123.63,-0.21,13.45
26.548000,-78.7500,13,123.63,-0.21,13.45
26.558000,-78.1250,13,123.63,-0.21,13.45
26.568000,-78.1250,13,123.63,-0.21,13.45
26.578000,-78.5000,13,123.63,-0.21,13.45
26.588000,-78.6250,13,123.63,-0.21,13.45
26.598000,-78.0000,13,123.63,-0.21,13.45
26.608000,-78.5000,13,123.63,-0.21,13.45
26.618000,-78.0000,13,123.63,-0.21,13.45
26.628000,-79.1250,13,123.63,-0.21,13.45
26.638000,-78.5000,13,123.63,-0.21,13.45
26.648000,-77.5000,13,123.63,-0.21,13.45
26.658000,-78.3750,13,123.63,-0.21,13.45
26.668000,-78.2500,13,123.63,-0.21,13.45
26.678000,-78.7500,13,123.63,-0.21,13.45
26.688000,-77.3750,13,123.63,-0.21,13.45
26.698000,-77.7500,13,123.63,-0.21,13.45
26.708000,-77.3750,13,123.63,-0.21,13.45
26.718000,-77.6250,13,123.63,-0.21,13.45
26.728000,-77.3750,13,123.63,-0.21,13.45
26.738000,-77.3750,13,123.63,-0.21,13.45
26.748000,-77.7500,13,123.63,-0.21,13.45
26.758000,-77.2500,13,123.63,-0.21,13.45
26.768000,-77.8750,13,123.63,-0.21,13.45
26.778000,-77.8750,13,123.63,-0.21,13.45
26.788000,-76.3750,13,123.63,-0.21,13.45
26.798000,-77.6250,13,123.63,-0.21,13.45
26.808000,-77.3750,13,123.63,-0.21,13.45
26.818000,-78.1250,13,123.63,-0.21,13.45
26.828000,-78.0000,13,123.63,-0.21,13.45
26.838000,-77.2500,13,123.63,-0.21,13.45
26.848000,-77.7500,13,123.63,-0.21,13.45
26.858000,-77.1250,13,123.63,-0.21,13.45
26.868000,-78.2500,13,123.63,-0.21,13.45
26.878000,-77.8750,13,123.63,-0.21,13.45
26.888000,-77.1250,13,123.63,-0.21,13.45
26.898000,-77.3750,13,123.63,-0.21,13.45
26.908000,-78.1250,13,123.63,-0.21,13.45
26.918000,-78.0000,13,123.63,-0.21,13.45
26.928000,-78.0000,13,123.63,-0.21,13.45
26.938000,-78.5000,13,123.63,-0.21,13.45
26.948000,-78.1250,13,123.63,-0.21,13.45
26.958000,-78.2500,13,123.63,-0.21,13.45
26.968000,-77.5000,13,123.63,-0.21,13.45
26.978000,-77.7500,13,123.63,-0.21,13.45
26.988000,-78.6250,13,123.63,-0.21,13.45
26.998000,-77.8750,13,123.63,-0.21,13.45
27.008000,-78.5000,13,123.63,-0.21,13.45
27.018000,-78.8750,13,123.63,-0.21,13.45
27.028000,-78.3750,13,123.63,-0.21,13.45
27.038000,-79.5000,13,123.63,-0.21,13.45
27.048000,-79.5000,13,123.63,-0.21,13.45
27.058000,-78.8750,13,123.63,-0.21,13.45
27.068000,-76.2500,13,123.63,-0.21,13.45
27.078000,-78.1250,13,123.63,-0.21,13.45
27.088000,-79.0000,13,123.63,-0.21,13.45
27.098000,-78.5000,13,123.63,-0.21,13.45
27.108000,-77.8750,13,123.63,-0.21,13.45
27.118000,-78.6250,13,123.63,-0.21,13.45
27.128000,-78.3750,13,123.63,-0.21,13.45
27.138000,-79.0000,13,123.63,-0.21,13.45
27.148000,-78.7500,13,123.63,-0.21,13.45
27.158000,-79.3750,13,123.63,-0.21,13.45
27.168000,-78.1250,13,123.63,-0.21,13.45
27.178000,-78.7500,13,123.63,-0.21,13.45
27.188000,-78.8750,13,123.63,-0.21,13.45
27.198000,-78.7500,13,123.63,-0.21,13.45
27.208000,-78.7500,13,123.63,-0.21,13.45
27.218000,-79.3750,13,123.63,-0.21,13.45
27.228000,-79.1250,13,123.63,-0.21,13.45
27.238000,-79.1250,13,123.63,-0.21,13.45
27.248000,-79.2500,13,123.63,-0.21,13.45
27.258000,-79.5000,13,123.63,-0.21,13.45
27.268000,-78.6250,13,123.63,-0.21,13.45
27.278000,-79.2500,13,123.63,-0.21,13.45
27.288000,-78.7500,13,123.63,-0.21,13.45
27.298000,-78.7500,13,123.63,-0.21,13.45
27.308000,-78.2500,13,123.63,-0.21,13.45
27.318000,-79.0000,13,123.63,-0.21,13.45
27.328000,-78.2500,13,123.63,-0.21,13.45
27.338000,-78.7500,13,123.63,-0.21,13.45
27.348000,-78.0000,13,123.63,-0.21,13.45
27.358000,-78.1250,13,123.63,-0.21,13.45
27.368000,-77.2500,13,123.63,-0.21,13.45
27.378000,-78.5000,13,123.63,-0.21,13.45
27.388000,-78.1250,13,123.63,-0.21,13.45
27.398000,-78.3750,13,123.63,-0.21,13.45
27.408000,-77.2500,13,123.63,-0.21,13.45
27.418000,-77.7500,13,123.63,-0.21,13.45
27.428000,-77.5000,13,123.63,-0.21,13.45
27.438000,-77.8750,13,123.63,-0.21,13.45
27.448000,-78.2500,13,123.63,-0.21,13.45
27.458000,-77.8750,13,123.63,-0.21,13.45
27.468000,-78.5000,13,123.63,-0.21,13.45
27.478000,-83.3750,13,123.63,-0.21,13.45
27.488000,-81.7500,13,123.63,-0.21,13.45
27.498000,-83.2500,13,123.63,-0.21,13.45
27.508000,-82.5000,13,123.63,-0.21,13.45
27.518000,-75.0000,13,123.63,-0.21,13.45
27.528000,-83.6250,13,123.63,-0.21,13.45
27.538000,-53.1250,13,123.63,-0.21,13.45
27.548000,-82.0000,13,123.63,-0.21,13.45
27.558000,-35.3750,13,123.63,-0.21,13.45
27.568000,-84.2500,13,123.63,-0.21,13.45
27.578000,-33.8750,13,123.63,-0.21,13.45
27.588000,-72.5000,13,123.63,-0.21,13.45
27.598000,-12.0000,13,123.63,-0.21,13.45
27.608000,-60.7500,13,123.63,-0.21,13.45
27.618000,-3.7500,13,123.63,-0.21,13.45
27.628000,-44.0000,13,123.63,-0.21,13.45
27.638000,13.6250,13,123.63,-0.21,13.45
27.648000,-32.3750,13,123.63,-0.21,13.45
27.658000,26.8750,13,123.63,-0.21,13.45
27.668000,-39.2500,13,123.63,-0.21,13.45
27.678000,13.0000,13,123.63,-0.21,13.45
27.688000,-50.6250,13,123.63,-0.21,13.45
27.698000,-36.7500,13,123.63,-0.21,13.45
27.708000,-74.1250,13,123.63,-0.21,13.45
27.718000,-56.3750,13,123.63,-0.21,13.45
27.728000,-77.3750,13,123.63,-0.21,13.45
27.738000,-42.8750,13,123.63,-0.21,13.45
27.748000,-66.7500,13,123.63,-0.21,13.45
27.758000,-41.5000,13,123.63,-0.21,13.45
27.768000,-61.5000,13,123.63,-0.21,13.45
27.778000,-26.1250,13,123.63,-0.21,13.45
27.788000,-54.2500,13,123.63,-0.21,13.45
27.798000,-24.0000,13,123.63,-0.21,13.45
27.808000,-93.5000,13,123.63,-0.21,13.45
27.818000,-45.2500,13,123.63,-0.21,13.45
27.828000,-101.3750,13,123.63,-0.21,13.45
27.838000,-56.2500,13,123.63,-0.21,13.45
27.848000,-99.6250,13,123.63,-0.21,13.45
27.858000,-99.2500,13,123.63,-0.21,13.45
27.868000,-91.7500,13,123.63,-0.21,13.45
27.878000,-101.3750,13,123.63,-0.21,13.45
27.888000,-101.1250,13,123.63,-0.21,13.45
27.898000,44.3750,13,123.63,-0.21,13.45
27.908000,-15.6250,13,123.63,-0.21,13.45
27.918000,176.5000,13,123.63,-0.21,13.45
27.928000,32.0000,13,123.63,-0.21,13.45
27.938000,154.0000,13,123.63,-0.21,13.45
27.948000,-17.8750,13,123.63,-0.21,13.45
27.958000,130.0000,13,123.63,-0.21,13.45
27.968000,37.7500,13,123.63,-0.21,13.45
27.978000,147.7500,13,123.63,-0.21,13.45
27.988000,-3.0000,13,123.63,-0.21,13.45
27.998000,13.3750,13,123.63,-0.21,13.45
28.008000,-51.3750,13,123.63,-0.21,13.45
28.018000,-122.2500,13,123.63,-0.21,13.45
28.028000,-124.3750,13,123.63,-0.21,13.45
28.038000,-118.6250,13,123.63,-0.21,13.45
28.048000,-121.7500,13,123.63,-0.21,13.45
28.058000,-119.6250,13,123.63,-0.21,13.45
28.068000,-118.5000,13,123.63,-0.21,13.45
28.078000,-116.5000,13,123.63,-0.21,13.45
28.088000,-112.0000,13,123.63,-0.21,13.45
28.098000,-97.7500,13,123.63,-0.21,13.45
28.108000,90.5000,13,123.63,-0.21,13.45
28.118000,-108.2500,13,123.63,-0.21,13.45
28.128000,-107.6250,13,123.63,-0.21,13.45
28.138000,-89.3750,13,123.63,-0.21,13.45
28.148000,-96.2500,13,123.63,-0.21,13.45
28.158000,19.6250,13,123.63,-0.21,13.45
28.168000,-115.6250,13,123.63,-0.21,13.45
28.178000,105.5000,13,123.63,-0.21,13.45
28.188000,-107.3750,13,123.63,-0.21,13.45
28.198000,133.3750,13,123.63,-0.21,13.45
28.208000,-107.6250,13,123.63,-0.21,13.45
28.218000,188.8750,13,123.63,-0.21,13.45
28.228000,-42.0000,13,123.63,-0.21,13.45
28.238000,-76.8750,13,123.63,-0.21,13.45
28.248000,-56.8750,13,123.63,-0.21,13.45
28.258000,229.5000,13,123.63,-0.21,13.45
28.268000,32.8750,13,123.63,-0.21,13.45
28.278000,246.7500,13,123.63,-0.21,13.45
28.288000,231.5000,13,123.63,-0.21,13.45
28.298000,345.3750,13,123.63,-0.21,13.45
28.308000,218.6250,13,123.63,-0.21,13.45
28.318000,276.0000,13,123.63,-0.21,13.45
28.328000,291.2500,13,123.63,-0.21,13.45
28.338000,307.3750,13,123.63,-0.21,13.45
28.348000,239.2500,13,123.63,-0.21,13.45
28.358000,206.8750,13,123.63,-0.21,13.45
28.368000,127.8750,13,123.63,-0.21,13.45
28.378000,-29.5000,13,123.63,-0.21,13.45
28.388000,94.8750,13,123.63,-0.21,13.45
28.398000,-92.3750,13,123.63,-0.21,13.45
28.408000,175.0000,13,123.63,-0.21,13.45
28.418000,-60.0000,13,123.63,-0.21,13.45
28.428000,83.1250,13,123.63,-0.21,13.45
28.438000,-91.8750,13,123.63,-0.21,13.45
28.448000,118.2500,13,123.63,-0.21,13.45
28.458000,-242.8750,13,123.63,-0.21,13.45
28.468000,-101.2500,13,123.63,-0.21,13.45
28.478000,-494.0000,13,123.63,-0.21,13.45
28.488000,-298.5000,13,123.63,-0.21,13.45
28.498000,-26.0000,13,123.63,-0.21,13.45
28.508000,212.6250,13,123.63,-0.21,13.45
28.518000,-23.6250,13,123.63,-0.21,13.45
28.528000,65.7500,13,123.63,-0.21,13.45
28.538000,-495.7500,13,123.63,-0.21,13.45
28.548000,-311.8750,13,123.63,-0.21,13.45
28.558000,-510.1250,13,123.63,-0.21,13.45
28.568000,-499.2500,13,123.63,-0.21,13.45
28.578000,-484.1250,13,123.63,-0.21,13.45
28.588000,-460.8750,13,123.63,-0.21,13.45
28.598000,-281.7500,13,123.63,-0.21,13.45
28.608000,-312.0000,13,123.63,-0.21,13.45
28.618000,1048.8750,13,123.63,-0.21,13.45
28.628000,-1140.5000,13,123.63,-0.21,13.45
28.638000,960.2500,13,123.63,-0.21,13.45
28.648000,40.7500,13,123.63,-0.21,13.45
28.658000,-510.0000,13,123.63,-0.21,13.45
28.668000,40.0000,13,123.63,-0.21,13.45
28.678000,810.7500,13,123.63,-0.21,13.45
28.688000,-176.8750,13,123.63,-0.21,13.45
28.698000,1031.3750,13,123.63,-0.21,13.45
28.708000,1025.8750,13,123.63,-0.21,13.45
28.718000,-420.0000,13,123.63,-0.21,13.45
28.728000,1036.6250,13,123.63,-0.21,13.45
28.738000,1036.1250,13,123.63,-0.21,13.45
28.748000,936.7500,13,123.63,-0.21,13.45
28.758000,1039.6250,13,123.63,-0.21,13.45
28.768000,1023.5000,13,123.63,-0.21,13.45
28.778000,1036.2500,13,123.63,-0.21,13.45
28.788000,1041.5000,13,123.63,-0.21,13.45
28.798000,-326.7500,13,123.63,-0.21,13.45
28.808000,615.3750,13,123.63,-0.21,13.45
28.818000,367.7500,13,123.63,-0.21,13.45
28.828000,631.0000,13,123.63,-0.21,13.45
28.838000,341.2500,13,123.63,-0.21,13.45
28.848000,613.1250,13,123.63,-0.21,13.45
28.858000,876.2500,13,123.63,-0.21,13.45
28.868000,1047.8750,13,123.63,-0.21,13.45
28.878000,1037.5000,13,123.63,-0.21,13.45
28.888000,65.6250,13,123.63,-0.21,13.45
28.898000,-401.0000,13,123.63,-0.21,13.45
28.908000,-255.7500,13,123.63,-0.21,13.45
28.918000,324.3750,13,123.63,-0.21,13.45
28.928000,1036.1250,13,123.63,-0.21,13.45
28.938000,340.0000,13,123.63,-0.21,13.45
28.948000,967.0000,13,123.63,-0.21,13.45
28.958000,358.2500,13,123.63,-0.21,13.45
28.968000,-186.8750,13,123.63,-0.21,13.45
28.978000,976.0000,13,123.63,-0.21,13.45
28.988000,1014.7500,13,123.63,-0.21,13.45
28.998000,977.5000,13,123.63,-0.21,13.45
29.008000,938.2500,13,123.63,-0.21,13.45
29.018000,1019.5000,13,123.63,-0.21,13.45
29.028000,340.0000,13,123.63,-0.21,13.45
29.038000,-868.1250,13,123.63,-0.21,13.45
29.048000,760.6250,13,123.63,-0.21,13.45
29.058000,-855.3750,13,123.63,-0.21,13.45
29.068000,654.5000,13,123.63,-0.21,13.45
29.078000,-711.0000,13,123.63,-0.21,13.45
29.088000,-924.5000,13,123.63,-0.21,13.45
29.098000,512.8750,13,123.63,-0.21,13.45
29.108000,-775.7500,13,123.63,-0.21,13.45
29.118000,382.3750,13,123.63,-0.21,13.45
29.128000,-696.3750,13,123.63,-0.21,13.45
29.138000,20.2500,13,123.63,-0.21,13.45
29.148000,362.2500,13,123.63,-0.21,13.45
29.158000,-360.3750,13,123.63,-0.21,13.45
29.168000,102.3750,13,123.63,-0.21,13.45
29.178000,-410.3750,13,123.63,-0.21,13.45
29.188000,69.2500,13,123.63,-0.21,13.45
29.198000,670.1250,13,123.63,-0.21,13.45
29.208000,-994.0000,13,123.63,-0.21,13.45
29.218000,651.6250,13,123.63,-0.21,13.45
29.228000,-965.0000,13,123.63,-0.21,13.45
29.238000,508.1250,13,123.63,-0.21,13.45
29.248000,-874.1250,13,123.63,-0.21,13.45
29.258000,511.0000,13,123.63,-0.21,13.45
29.268000,-848.0000,13,123.63,-0.21,13.45
29.278000,396.8750,13,123.63,-0.21,13.45
29.288000,-857.5000,13,123.63,-0.21,13.45
29.298000,335.5000,13,123.63,-0.21,13.45
29.308000,-661.7500,13,123.63,-0.21,13.45
29.318000,334.8750,13,123.63,-0.21,13.45
29.328000,-571.2500,13,123.63,-0.21,13.45
29.338000,336.3750,13,123.63,-0.21,13.45
29.348000,-575.7500,13,123.63,-0.21,13.45
29.358000,302.8750,13,123.63,-0.21,13.45
29.368000,240.2500,13,123.63,-0.21,13.45
29.378000,265.2500,13,123.63,-0.21,13.45
29.388000,-731.7500,13,123.63,-0.21,13.45
29.398000,231.6250,13,123.63,-0.21,13.45
29.408000,-677.0000,13,123.63,-0.21,13.45
29.418000,149.7500,13,123.63,-0.21,13.45
29.428000,-345.3750,13,123.63,-0.21,13.45
29.438000,210.5000,13,123.63,-0.21,13.45
29.448000,-325.5000,13,123.63,-0.21,13.45
29.458000,-158.3750,15,,-5.48,2.81
29.468000,-372.0000,15,,-5.48,2.81
29.478000,-134.0000,15,,-5.48,2.81
29.488000,-439.6250,15,,-5.48,2.81
29.498000,-179.6250,15,,-5.48,2.81
29.508000,50.6250,15,,-5.48,2.81
29.518000,-135.1250,15,,-5.48,2.81
29.528000,30.2500,15,,-5.48,2.81
29.538000,-64.8750,15,,-5.48,2.81
29.548000,72.6250,15,,-5.48,2.81
29.558000,-434.7500,15,,-5.48,2.81
29.568000,59.1250,15,,-5.48,2.81
29.578000,-465.7500,15,,-5.48,2.81
29.588000,-8.1250,15,,-5.48,2.81
29.598000,-486.8750,15,,-5.48,2.81
29.608000,354.0000,15,,-5.48,2.81
29.618000,-438.5000,15,,-5.48,2.81
29.628000,351.8750,15,,-5.48,2.81
29.638000,-401.8750,15,,-5.48,2.81
29.648000,-663.7500,15,,-5.48,2.81
29.658000,-1185.7500,15,,-5.48,2.81
29.668000,-312.7500,15,,-5.48,2.81
29.678000,-882.1250,15,,-5.48,2.81
29.688000,-143.7500,15,,-5.48,2.81
29.698000,-722.7500,15,,-5.48,2.81
29.708000,283.8750,15,,-5.48,2.81
29.718000,-598.1250,15,,-5.48,2.81
29.728000,-89.5000,15,,-5.48,2.81
29.738000,-913.0000,15,,-5.48,2.81
29.748000,-932.8750,15,,-5.48,2.81
29.758000,-1324.3750,15,,-5.48,2.81
29.768000,-753.8750,15,,-5.48,2.81
29.778000,-1282.1250,15,,-5.48,2.81
29.788000,-222.3750,15,,-5.48,2.81
29.798000,-1152.7500,15,,-5.48,2.81
29.808000,3.0000,15,,-5.48,2.81
29.818000,-994.5000,15,,-5.48,2.81
29.828000,225.8750,15,,-5.48,2.81
29.838000,-1077.8750,15,,-5.48,2.81
29.848000,-323.2500,15,,-5.48,2.81
29.858000,-1093.1250,15,,-5.48,2.81
29.868000,-316.1250,15,,-5.48,2.81
29.878000,-1016.8750,15,,-5.48,2.81
29.888000,-238.6250,15,,-5.48,2.81
29.898000,-945.7500,15,,-5.48,2.81
29.908000,-185.0000,15,,-5.48,2.81
29.918000,-856.0000,15,,-5.48,2.81
29.928000,162.6250,15,,-5.48,2.81
29.938000,-820.1250,15,,-5.48,2.81
29.948000,204.0000,15,,-5.48,2.81
29.958000,-787.5000,15,,-5.48,2.81
29.968000,211.6250,15,,-5.48,2.81
29.978000,-807.7500,15,,-5.48,2.81
29.988000,36.2500,15,,-5.48,2.81
29.998000,-848.6250,15,,-5.48,2.81
30.008000,224.0000,15,,-5.48,2.81
30.018000,-745.3750,15,,-5.48,2.81
30.028000,300.8750,15,,-5.48,2.81
30.038000,-699.2500,15,,-5.48,2.81
30.048000,332.5000,15,,-5.48,2.81
30.058000,-673.3750,15,,-5.48,2.81
30.068000,111.8750,15,,-5.48,2.81
30.078000,-635.2500,15,,-5.48,2.81
30.088000,161.8750,15,,-5.48,2.81
30.098000,-602.2500,15,,-5.48,2.81
30.108000,372.8750,15,,-5.48,2.81
30.118000,-708.8750,15,,-5.48,2.81
30.128000,360.8750,15,,-5.48,2.81
30.138000,-600.2500,15,,-5.48,2.81
30.148000,-68.6250,15,,-5.48,2.81
30.158000,-1100.6250,15,,-5.48,2.81
30.168000,-485.6250,15,,-5.48,2.81
30.178000,-875.8750,15,,-5.48,2.81
30.188000,-347.6250,15,,-5.48,2.81
30.198000,-775.0000,15,,-5.48,2.81
30.208000,-245.8750,15,,-5.48,2.81
30.218000,-792.7500,15,,-5.48,2.81
30.228000,-252.7500,15,,-5.48,2.81
30.238000,-717.3750,15,,-5.48,2.81
30.248000,-189.3750,15,,-5.48,2.81
30.258000,-712.2500,15,,-5.48,2.81
30.268000,-113.0000,15,,-5.48,2.81
30.278000,-674.8750,15,,-5.48,2.81
30.288000,-89.3750,15,,-5.48,2.81
30.298000,-568.8750,15,,-5.48,2.81
30.308000,-106.2500,15,,-5.48,2.81
30.318000,-546.5000,15,,-5.48,2.81
30.328000,-152.8750,15,,-5.48,2.81
30.338000,-681.0000,15,,-5.48,2.81
30.348000,-410.1250,15,,-5.48,2.81
30.358000,-796.1250,15,,-5.48,2.81
30.368000,-424.1250,15,,-5.48,2.81
30.378000,-733.5000,15,,-5.48,2.81
30.388000,-359.2500,15,,-5.48,2.81
30.398000,-703.8750,15,,-5.48,2.81
30.408000,-380.8750,15,,-5.48,2.81
30.418000,-797.7500,15,,-5.48,2.81
30.428000,-496.5000,15,,-5.48,2.81
30.438000,-1281.7500,15,,-5.48,2.81
30.448000,-819.1250,15,,-5.48,2.81
30.458000,-1151.8750,15,,-5.48,2.81
30.468000,-616.0000,15,,-5.48,2.81
30.478000,-680.1250,15,,-5.48,2.81
30.488000,317.8750,15,,-5.48,2.81
30.498000,-412.7500,15,,-5.48,2.81
30.508000,219.8750,15,,-5.48,2.81
30.518000,-140.6250,15,,-5.48,2.81
30.528000,399.3750,15,,-5.48,2.81
30.538000,-79.0000,15,,-5.48,2.81
30.548000,289.1250,15,,-5.48,2.81
30.558000,-79.2500,15,,-5.48,2.81
30.568000,29.0000,15,,-5.48,2.81
30.578000,-606.6250,15,,-5.48,2.81
30.588000,-240.7500,15,,-5.48,2.81
30.598000,-349.6250,15,,-5.48,2.81
30.608000,-182.3750,15,,-5.48,2.81
30.618000,-156.8750,15,,-5.48,2.81
30.628000,-66.5000,15,,-5.48,2.81
30.638000,-273.3750,15,,-5.48,2.81
30.648000,41.6250,15,,-5.48,2.81
30.658000,-159.3750,15,,-5.48,2.81
30.668000,131.0000,15,,-5.48,2.81
30.678000,-167.8750,15,,-5.48,2.81
30.688000,-163.1250,15,,-5.48,2.81
30.698000,-418.0000,15,,-5.48,2.81
30.708000,19.3750,15,,-5.48,2.81
30.718000,-3.3750,15,,-5.48,2.81
30.728000,-148.8750,15,,-5.48,2.81
30.738000,6.1250,15,,-5.48,2.81
30.748000,238.6250,15,,-5.48,2.81
30.758000,-316.5000,15,,-5.48,2.81
30.768000,-376.7500,15,,-5.48,2.81
30.778000,-338.7500,15,,-5.48,2.81
30.788000,-886.8750,15,,-5.48,2.81
30.798000,-525.8750,15,,-5.48,2.81
30.808000,-918.6250,15,,-5.48,2.81
30.818000,-678.5000,15,,-5.48,2.81
30.828000,-679.1250,15,,-5.48,2.81
30.838000,-989.2500,15,,-5.48,2.81
30.848000,-1366.7500,15,,-5.48,2.81
30.858000,-1364.8750,15,,-5.48,2.81
30.868000,-1367.6250,15,,-5.48,2.81
30.878000,-1370.1250,15,,-5.48,2.81
30.888000,-1369.1250,15,,-5.48,2.81
30.898000,-1365.0000,15,,-5.48,2.81
30.908000,-1361.2500,15,,-5.48,2.81
30.918000,-1368.6250,15,,-5.48,2.81
30.928000,-1365.0000,15,,-5.48,2.81
30.938000,-1366.5000,15,,-5.48,2.81
30.948000,-1367.7500,15,,-5.48,2.81
30.958000,-1368.2500,15,,-5.48,2.81
30.968000,-1365.8750,15,,-5.48,2.81
30.978000,-1367.6250,15,,-5.48,2.81
30.988000,-1366.3750,15,,-5.48,2.81
30.998000,-1368.5000,15,,-5.48,2.81
31.008000,-1367.5000,15,,-5.48,2.81
31.018000,-1297.6250,15,,-5.48,2.81
31.028000,-1369.0000,15,,-5.48,2.81
31.038000,-1132.3750,15,,-5.48,2.81
31.048000,-1319.1250,15,,-5.48,2.81
31.058000,-1368.5000,15,,-5.48,2.81
31.068000,-1367.6250,15,,-5.48,2.81
31.078000,-1367.2500,15,,-5.48,2.81
31.088000,-1367.7500,15,,-5.48,2.81
31.098000,-1371.3750,15,,-5.48,2.81
31.108000,-1370.2500,15,,-5.48,2.81
31.118000,-1374.5000,15,,-5.48,2.81
31.128000,-1367.8750,15,,-5.48,2.81
31.138000,-1372.8750,15,,-5.48,2.81
31.148000,-1370.2500,15,,-5.48,2.81
31.158000,-1371.7500,15,,-5.48,2.81
31.168000,-1373.3750,15,,-5.48,2.81
31.178000,-1372.0000,15,,-5.48,2.81
31.188000,-1366.2500,15,,-5.48,2.81
31.198000,-1371.6250,15,,-5.48,2.81
31.208000,-1368.5000,15,,-5.48,2.81
31.218000,-1376.7500,15,,-5.48,2.81
31.228000,-1367.5000,15,,-5.48,2.81
31.238000,-1369.6250,15,,-5.48,2.81
31.248000,-1376.0000,15,,-5.48,2.81
31.258000,-1366.3750,15,,-5.48,2.81
31.268000,-1366.5000,15,,-5.48,2.81
31.278000,-1367.0000,15,,-5.48,2.81
31.288000,-1366.6250,15,,-5.48,2.81
31.298000,-1317.8750,15,,-5.48,2.81
31.308000,-1368.5000,15,,-5.48,2.81
31.318000,-1349.1250,15,,-5.48,2.81
31.328000,-1369.5000,15,,-5.48,2.81
31.338000,-1336.5000,15,,-5.48,2.81
31.348000,-1356.6250,15,,-5.48,2.81
31.358000,-1341.3750,15,,-5.48,2.81
31.368000,-1229.6250,15,,-5.48,2.81
31.378000,-1114.0000,15,,-5.48,2.81
31.388000,-1116.6250,15,,-5.48,2.81
31.398000,-1008.1250,15,,-5.48,2.81
31.408000,-936.6250,15,,-5.48,2.81
31.418000,-848.5000,15,,-5.48,2.81
31.428000,-811.1250,15,,-5.48,2.81
31.438000,-791.8750,15,,-5.48,2.81
31.448000,-775.1250,15,,-5.48,2.81
31.458000,-733.8750,15,,-5.48,2.81
31.468000,-719.3750,15,,-5.48,2.81
31.478000,-691.6250,15,,-5.48,2.81
31.488000,-673.7500,15,,-5.48,2.81
31.498000,-660.0000,15,,-5.48,2.81
31.508000,-656.7500,15,,-5.48,2.81
31.518000,-648.2500,15,,-5.48,2.81
31.528000,-647.2500,15,,-5.48,2.81
31.538000,-638.2500,15,,-5.48,2.81
31.548000,-646.7500,15,,-5.48,2.81
31.558000,-603.1250,15,,-5.48,2.81
31.568000,-555.5000,15,,-5.48,2.81
31.578000,-528.7500,15,,-5.48,2.81
31.588000,-400.6250,15,,-5.48,2.81
31.598000,-333.7500,15,,-5.48,2.81
31.608000,-326.1250,15,,-5.48,2.81
31.618000,-39.7500,15,,-5.48,2.81
31.628000,23.2500,15,,-5.48,2.81
31.638000,24.8750,15,,-5.48,2.81
31.648000,401.8750,15,,-5.48,2.81
31.658000,331.0000,15,,-5.48,2.81
31.668000,408.6250,15,,-5.48,2.81
31.678000,193.5000,15,,-5.48,2.81
31.688000,779.1250,15,,-5.48,2.81
31.698000,788.2500,15,,-5.48,2.81
31.708000,847.5000,15,,-5.48,2.81
31.718000,719.6250,15,,-5.48,2.81
31.728000,881.2500,15,,-5.48,2.81
31.738000,672.7500,15,,-5.48,2.81
31.748000,755.6250,15,,-5.48,2.81
31.758000,746.1250,15,,-5.48,2.81
31.768000,1030.6250,15,,-5.48,2.81
31.778000,1051.2500,15,,-5.48,2.81
31.788000,1052.6250,15,,-5.48,2.81
31.798000,1049.5000,15,,-5.48,2.81
31.808000,859.1250,15,,-5.48,2.81
31.818000,940.8750,15,,-5.48,2.81
31.828000,912.3750,15,,-5.48,2.81
31.838000,1003.7500,15,,-5.48,2.81
31.848000,528.3750,15,,-5.48,2.81
31.858000,816.5000,15,,-5.48,2.81
31.868000,720.6250,15,,-5.48,2.81
31.878000,793.1250,15,,-5.48,2.81
31.888000,869.3750,15,,-5.48,2.81
31.898000,930.2500,15,,-5.48,2.81
31.908000,927.8750,15,,-5.48,2.81
31.918000,931.3750,15,,-5.48,2.81
31.928000,641.2500,15,,-5.48,2.81
31.938000,938.5000,15,,-5.48,2.81
31.948000,559.6250,15,,-5.48,2.81
31.958000,714.7500,15,,-5.48,2.81
31.968000,813.5000,15,,-5.48,2.81
31.978000,793.7500,15,,-5.48,2.81
31.988000,799.8750,15,,-5.48,2.81
31.998000,513.5000,15,,-5.48,2.81
32.008000,533.2500,15,,-5.48,2.81
32.018000,797.6250,15,,-5.48,2.81
32.028000,518.2500,15,,-5.48,2.81
32.038000,774.1250,15,,-5.48,2.81
32.048000,503.6250,15,,-5.48,2.81
32.058000,791.7500,15,,-5.48,2.81
32.068000,526.8750,15,,-5.48,2.81
32.078000,806.6250,15,,-5.48,2.81
32.088000,390.7500,15,,-5.48,2.81
32.098000,261.1250,15,,-5.48,2.81
32.108000,-126.5000,15,,-5.48,2.81
32.118000,36.2500,15,,-5.48,2.81
32.128000,91.7500,15,,-5.48,2.81
32.138000,32.2500,15,,-5.48,2.81
32.148000,-103.5000,15,,-5.48,2.81
32.158000,-87.3750,15,,-5.48,2.81
32.168000,-53.7500,15,,-5.48,2.81
32.178000,-93.5000,15,,-5.48,2.81
32.188000,-167.8750,15,,-5.48,2.81
32.198000,-231.1250,15,,-5.48,2.81
32.208000,-240.8750,15,,-5.48,2.81
32.218000,-241.2500,15,,-5.48,2.81
32.228000,-215.6250,15,,-5.48,2.81
32.238000,-275.1250,15,,-5.48,2.81
32.248000,-245.0000,15,,-5.48,2.81
32.258000,-111.1250,15,,-5.48,2.81
32.268000,-103.7500,15,,-5.48,2.81
32.278000,-106.0000,15,,-5.48,2.81
32.288000,-143.5000,15,,-5.48,2.81
32.298000,-41.0000,15,,-5.48,2.81
32.308000,-20.2500,15,,-5.48,2.81
32.318000,-59.7500,15,,-5.48,2.81
32.328000,244.6250,15,,-5.48,2.81
32.338000,314.8750,15,,-5.48,2.81
32.348000,125.0000,15,,-5.48,2.81
32.358000,283.6250,15,,-5.48,2.81
32.368000,234.6250,15,,-5.48,2.81
32.378000,102.0000,15,,-5.48,2.81
32.388000,234.2500,15,,-5.48,2.81
32.398000,139.3750,15,,-5.48,2.81
32.408000,152.7500,15,,-5.48,2.81
32.418000,206.5000,15,,-5.48,2.81
32.428000,223.5000,15,,-5.48,2.81
32.438000,448.2500,15,,-5.48,2.81
32.448000,479.7500,15,,-5.48,2.81
32.458000,647.1250,15,,-5.48,2.81
32.468000,434.0000,15,,-5.48,2.81
32.478000,908.6250,15,,-5.48,2.81
32.488000,880.6250,15,,-5.48,2.81
32.498000,459.8750,15,,-5.48,2.81
32.508000,879.8750,15,,-5.48,2.81
32.518000,858.6250,15,,-5.48,2.81
32.528000,682.0000,15,,-5.48,2.81
32.538000,432.1250,15,,-5.48,2.81
32.548000,-226.8750,15,,-5.48,2.81
32.558000,-23.8750,15,,-5.48,2.81
32.568000,43.1250,15,,-5.48,2.81
32.578000,-50.8750,15,,-5.48,2.81
32.588000,-461.3750,15,,-5.48,2.81
32.598000,-388.7500,15,,-5.48,2.81
32.608000,-523.2500,15,,-5.48,2.81
32.618000,-416.8750,15,,-5.48,2.81
32.628000,-219.6250,15,,-5.48,2.81
32.638000,-227.5000,15,,-5.48,2.81
32.648000,-128.2500,15,,-5.48,2.81
32.658000,-83.2500,15,,-5.48,2.81
32.668000,-260.7500,15,,-5.48,2.81
32.678000,-179.2500,15,,-5.48,2.81
32.688000,-274.3750,15,,-5.48,2.81
32.698000,-133.2500,15,,-5.48,2.81
32.708000,-129.5000,15,,-5.48,2.81
32.718000,-137.2500,15,,-5.48,2.81
32.728000,-260.1250,15,,-5.48,2.81
32.738000,-402.3750,15,,-5.48,2.81
32.748000,-3.3750,15,,-5.48,2.81
32.758000,-263.2500,15,,-5.48,2.81
32.768000,108.2500,15,,-5.48,2.81
32.778000,-185.5000,15,,-5.48,2.81
32.788000,242.2500,15,,-5.48,2.81
32.798000,388.5000,15,,-5.48,2.81
32.808000,295.6250,15,,-5.48,2.81
32.818000,690.8750,15,,-5.48,2.81
32.828000,781.6250,15,,-5.48,2.81
32.838000,800.1250,15,,-5.48,2.81
32.848000,265.6250,15,,-5.48,2.81
32.858000,802.1250,15,,-5.48,2.81
32.868000,360.8750,15,,-5.48,2.81
32.878000,346.0000,15,,-5.48,2.81
32.888000,737.6250,15,,-5.48,2.81
32.898000,334.5000,15,,-5.48,2.81
32.908000,709.1250,15,,-5.48,2.81
32.918000,349.7500,15,,-5.48,2.81
32.928000,386.8750,15,,-5.48,2.81
32.938000,597.2500,15,,-5.48,2.81
32.948000,483.0000,15,,-5.48,2.81
32.958000,496.2500,15,,-5.48,2.81
32.968000,440.5000,15,,-5.48,2.81
32.978000,466.1250,15,,-5.48,2.81
32.988000,514.8750,15,,-5.48,2.81
32.998000,453.5000,15,,-5.48,2.81
33.008000,146.2500,15,,-5.48,2.81
33.018000,501.1250,15,,-5.48,2.81
33.028000,475.3750,15,,-5.48,2.81
33.038000,480.8750,15,,-5.48,2.81
33.048000,233.2500,15,,-5.48,2.81
33.058000,455.7500,15,,-5.48,2.81
33.068000,117.0000,15,,-5.48,2.81
33.078000,168.1250,15,,-5.48,2.81
33.088000,387.7500,15,,-5.48,2.81
33.098000,-8.5000,15,,-5.48,2.81
33.108000,378.2500,15,,-5.48,2.81
33.118000,-16.8750,15,,-5.48,2.81
33.128000,361.1250,15,,-5.48,2.81
33.138000,-372.8750,15,,-5.48,2.81
33.148000,370.2500,15,,-5.48,2.81
33.158000,-277.0000,15,,-5.48,2.81
33.168000,348.3750,15,,-5.48,2.81
33.178000,-96.0000,15,,-5.48,2.81
33.188000,330.8750,15,,-5.48,2.81
33.198000,-49.6250,15,,-5.48,2.81
33.208000,315.8750,15,,-5.48,2.81
33.218000,-13.2500,15,,-5.48,2.81
33.228000,283.1250,15,,-5.48,2.81
33.238000,-34.1250,15,,-5.48,2.81
33.248000,255.8750,15,,-5.48,2.81
33.258000,-46.7500,15,,-5.48,2.81
33.268000,246.2500,15,,-5.48,2.81
33.278000,-56.1250,15,,-5.48,2.81
33.288000,222.6250,15,,-5.48,2.81
33.298000,201.2500,15,,-5.48,2.81
33.308000,47.5000,15,,-5.48,2.81
33.318000,32.0000,15,,-5.48,2.81
33.328000,34.3750,15,,-5.48,2.81
33.338000,18.1250,15,,-5.48,2.81
33.348000,101.7500,15,,-5.48,2.81
33.358000,-90.5000,15,,-5.48,2.81
33.368000,95.1250,15,,-5.48,2.81
33.378000,-79.7500,15,,-5.48,2.81
33.388000,94.1250,15,,-5.48,2.81
33.398000,-73.3750,15,,-5.48,2.81
33.408000,127.1250,15,,-5.48,2.81
33.418000,-65.7500,15,,-5.48,2.81
33.428000,120.0000,15,,-5.48,2.81
33.438000,-142.1250,15,,-5.48,2.81
33.448000,112.3750,15,,-5.48,2.81
33.458000,-149.3750,15,,-5.48,2.81
33.468000,97.7500,15,,-5.48,2.81
33.478000,-134.6250,15,,-5.48,2.81
33.488000,82.0000,15,,-5.48,2.81
33.498000,-136.2500,15,,-5.48,2.81
33.508000,75.3750,15,,-5.48,2.81
33.518000,-158.1250,15,,-5.48,2.81
33.528000,60.0000,15,,-5.48,2.81
33.538000,-165.3750,15,,-5.48,2.81
33.548000,51.0000,15,,-5.48,2.81
33.558000,-204.5000,17,77.64,-1.69,9.02
33.568000,39.1250,17,77.64,-1.69,9.02
33.578000,-227.8750,17,77.64,-1.69,9.02
33.588000,33.3750,17,77.64,-1.69,9.02
33.598000,-209.2500,17,77.64,-1.69,9.02
33.608000,22.5000,17,77.64,-1.69,9.02
33.618000,-231.6250,17,77.64,-1.69,9.02
33.628000,11.8750,17,77.64,-1.69,9.02
33.638000,-1314.2500,17,77.64,-1.69,9.02
33.648000,13.7500,17,77.64,-1.69,9.02
33.658000,-596.1250,17,77.64,-1.69,9.02
33.668000,13.3750,17,77.64,-1.69,9.02
33.678000,-465.5000,17,77.64,-1.69,9.02
33.688000,6.2500,17,77.64,-1.69,9.02
33.698000,-388.1250,17,77.64,-1.69,9.02
33.708000,-3.7500,17,77.64,-1.69,9.02
33.718000,-341.5000,17,77.64,-1.69,9.02
33.728000,-11.8750,17,77.64,-1.69,9.02
33.738000,-294.8750,17,77.64,-1.69,9.02
33.748000,-22.2500,17,77.64,-1.69,9.02
33.758000,-265.1250,17,77.64,-1.69,9.02
33.768000,-32.7500,17,77.64,-1.69,9.02
33.778000,-273.1250,17,77.64,-1.69,9.02
33.788000,-40.5000,17,77.64,-1.69,9.02
33.798000,-291.8750,17,77.64,-1.69,9.02
33.808000,-50.0000,17,77.64,-1.69,9.02
33.818000,-277.5000,17,77.64,-1.69,9.02
33.828000,-58.8750,17,77.64,-1.69,9.02
33.838000,-277.7500,17,77.64,-1.69,9.02
33.848000,-67.8750,17,77.64,-1.69,9.02
33.858000,-278.5000,17,77.64,-1.69,9.02
33.868000,-76.2500,17,77.64,-1.69,9.02
33.878000,-267.5000,17,77.64,-1.69,9.02
33.888000,-85.1250,17,77.64,-1.69,9.02
33.898000,-274.7500,17,77.64,-1.69,9.02
33.908000,-115.0000,17,77.64,-1.69,9.02
33.918000,-415.0000,17,77.64,-1.69,9.02
33.928000,-110.7500,17,77.64,-1.69,9.02
33.938000,-364.5000,17,77.64,-1.69,9.02
33.948000,-104.0000,17,77.64,-1.69,9.02
33.958000,-334.2500,17,77.64,-1.69,9.02
33.968000,-109.3750,17,77.64,-1.69,9.02
33.978000,-303.7500,17,77.64,-1.69,9.02
33.988000,-118.2500,17,77.64,-1.69,9.02
