timestamp_s,filtered_mV,loop,hr_bpm,snr_wb_db,snr_qrs_db
0.098000,-87.0000,0,,,
0.108000,-87.6250,0,,,
0.118000,-87.1250,0,,,
0.128000,-87.6250,0,,,
0.138000,-86.0000,0,,,
0.148000,-87.5000,0,,,
0.158000,-86.8750,0,,,
0.168000,-87.1250,0,,,
0.178000,-88.0000,0,,,
0.188000,-86.0000,0,,,
0.198000,-85.2500,0,,,
0.208000,-87.5000,0,,,
0.218000,-88.0000,0,,,
0.228000,-86.7500,0,,,
0.238000,-87.0000,0,,,
0.248000,-81.7500,0,,,
0.258000,-87.0000,0,,,
0.268000,-83.3750,0,,,
0.278000,-87.0000,0,,,
0.288000,-85.5000,0,,,
0.298000,-86.7500,0,,,
0.308000,-85.3750,0,,,
0.318000,-87.3750,0,,,
0.328000,-84.1250,0,,,
0.338000,-89.7500,0,,,
0.348000,-88.1250,0,,,
0.358000,-88.2500,0,,,
0.368000,-83.2500,0,,,
0.378000,-88.0000,0,,,
0.388000,-83.8750,0,,,
0.398000,-85.0000,0,,,
0.408000,-77.8750,0,,,
0.418000,-87.3750,0,,,
0.428000,-84.6250,0,,,
0.438000,-87.1250,0,,,
0.448000,-83.5000,0,,,
0.458000,-87.5000,0,,,
0.468000,-84.0000,0,,,
0.478000,-87.3750,0,,,
0.488000,-85.7500,0,,,
0.498000,-86.6250,0,,,
0.508000,-85.3750,0,,,
0.518000,-86.3750,0,,,
0.528000,-79.3750,0,,,
0.538000,-80.0000,0,,,
0.548000,-82.7500,0,,,
0.558000,-94.1250,0,,,
0.568000,-98.7500,0,,,
0.578000,-82.1250,0,,,
0.588000,-77.1250,0,,,
0.598000,-82.2500,0,,,
0.608000,-83.7500,0,,,
0.618000,-84.0000,0,,,
0.628000,-80.6250,0,,,
0.638000,-83.5000,0,,,
0.648000,-80.5000,0,,,
0.658000,-81.0000,0,,,
0.668000,-77.6250,0,,,
0.678000,-82.3750,0,,,
0.688000,-74.2500,0,,,
0.698000,-79.5000,0,,,
0.708000,-75.5000,0,,,
0.718000,-74.3750,0,,,
0.728000,-76.1250,0,,,
0.738000,-67.2500,0,,,
0.748000,-71.5000,0,,,
0.758000,-76.3750,0,,,
0.768000,-82.1250,0,,,
0.778000,-73.2500,0,,,
0.788000,-75.7500,0,,,
0.798000,-77.0000,0,,,
0.808000,-77.2500,0,,,
0.818000,-80.0000,0,,,
0.828000,-78.7500,0,,,
0.838000,-82.3750,0,,,
0.848000,-79.1250,0,,,
0.858000,-80.6250,0,,,
0.868000,-85.0000,0,,,
0.878000,-80.5000,0,,,
0.888000,-83.2500,0,,,
0.898000,-79.6250,0,,,
0.908000,-73.1250,0,,,
0.918000,-89.8750,0,,,
0.928000,-80.7500,0,,,
0.938000,-56.8750,0,,,
0.948000,-74.0000,0,,,
0.958000,-56.2500,0,,,
0.968000,-75.7500,0,,,
0.978000,-69.5000,0,,,
0.988000,-74.7500,0,,,
0.998000,-63.8750,0,,,
1.008000,-73.0000,0,,,
1.018000,-72.2500,0,,,
1.028000,-68.1250,0,,,
1.038000,-68.6250,0,,,
1.048000,-67.5000,0,,,
1.058000,-65.1250,0,,,
1.068000,-61.7500,0,,,
1.078000,-64.8750,0,,,
1.088000,-58.8750,0,,,
1.098000,-61.3750,0,,,
1.108000,-36.0000,0,,,
1.118000,-61.3750,0,,,
1.128000,-47.5000,0,,,
1.138000,-58.1250,0,,,
1.148000,-56.1250,0,,,
1.158000,-56.8750,0,,,
1.168000,-37.6250,0,,,
1.178000,-56.3750,0,,,
1.188000,-56.3750,0,,,
1.198000,-55.6250,0,,,
1.208000,-56.0000,0,,,
1.218000,-58.5000,0,,,
1.228000,-55.6250,0,,,
1.238000,-54.0000,0,,,
1.248000,-48.0000,0,,,
1.258000,-38.3750,0,,,
1.268000,-43.0000,0,,,
1.278000,-58.1250,0,,,
1.288000,-67.8750,0,,,
1.298000,-51.3750,0,,,
1.308000,-45.5000,0,,,
1.318000,-46.1250,0,,,
1.328000,-47.1250,0,,,
1.338000,-46.1250,0,,,
1.348000,-46.1250,0,,,
1.358000,-46.5000,0,,,
1.368000,-46.0000,0,,,
1.378000,-44.5000,0,,,
1.388000,-45.2500,0,,,
1.398000,-43.0000,0,,,
1.408000,-42.2500,0,,,
1.418000,-41.1250,0,,,
1.428000,-40.6250,0,,,
1.438000,-38.5000,0,,,
1.448000,-38.7500,0,,,
1.458000,-38.1250,0,,,
1.468000,-36.5000,0,,,
1.478000,-36.5000,0,,,
1.488000,-37.3750,0,,,
1.498000,-39.0000,0,,,
1.508000,-40.7500,0,,,
1.518000,-43.7500,0,,,
1.528000,-44.1250,0,,,
1.538000,-46.1250,0,,,
1.548000,-46.8750,0,,,
1.558000,-50.0000,0,,,
1.568000,-48.7500,0,,,
1.578000,-49.8750,0,,,
1.588000,-49.0000,0,,,
1.598000,-51.2500,0,,,
1.608000,-48.0000,0,,,
1.618000,-50.2500,0,,,
1.628000,-49.5000,0,,,
1.638000,-51.5000,0,,,
1.648000,-50.1250,0,,,
1.658000,-54.0000,0,,,
1.668000,-51.7500,0,,,
1.678000,-54.0000,0,,,
1.688000,-52.5000,0,,,
1.698000,-54.6250,0,,,
1.708000,-53.5000,0,,,
1.718000,-55.1250,0,,,
1.728000,-55.7500,0,,,
1.738000,-56.3750,0,,,
1.748000,-54.0000,0,,,
1.758000,-56.6250,0,,,
1.768000,-56.3750,0,,,
1.778000,-57.7500,0,,,
1.788000,-56.6250,0,,,
1.798000,-58.0000,0,,,
1.808000,-57.3750,0,,,
1.818000,-58.8750,0,,,
1.828000,-57.6250,0,,,
1.838000,-59.2500,0,,,
1.848000,-58.8750,0,,,
1.858000,-58.7500,0,,,
1.868000,-60.0000,0,,,
1.878000,-59.7500,0,,,
1.888000,-60.7500,0,,,
1.898000,-61.6250,0,,,
1.908000,-61.1250,0,,,
1.918000,-62.8750,0,,,
1.928000,-63.8750,0,,,
1.938000,-64.6250,0,,,
1.948000,-65.3750,0,,,
1.958000,-67.7500,0,,,
1.968000,-63.1250,0,,,
1.978000,-63.5000,0,,,
1.988000,-60.0000,0,,,
1.998000,-49.1250,0,,,
2.008000,-55.7500,0,,,
2.018000,-77.1250,0,,,
2.028000,-90.5000,0,,,
2.038000,-62.1250,0,,,
2.048000,-38.8750,0,,,
2.058000,-61.5000,0,,,
2.068000,-66.0000,0,,,
2.078000,-65.0000,0,,,
2.088000,-66.0000,0,,,
2.098000,-66.0000,0,,,
2.108000,-65.2500,0,,,
2.118000,-68.8750,0,,,
2.128000,-68.1250,0,,,
2.138000,-66.8750,0,,,
2.148000,-68.1250,0,,,
2.158000,-63.3750,0,,,
2.168000,-67.3750,0,,,
2.178000,-61.7500,0,,,
2.188000,-61.6250,0,,,
2.198000,-63.1250,0,,,
2.208000,-61.2500,0,,,
2.218000,-62.7500,0,,,
2.228000,-62.1250,0,,,
2.238000,-62.2500,0,,,
2.248000,-69.7500,0,,,
2.258000,-67.8750,0,,,
2.268000,-73.2500,0,,,
2.278000,-93.8750,0,,,
2.288000,-93.1250,0,,,
2.298000,-93.2500,0,,,
2.308000,-116.7500,0,,,
2.318000,-82.8750,0,,,
2.328000,-83.1250,0,,,
2.338000,-85.5000,0,,,
2.348000,-71.0000,0,,,
2.358000,-83.2500,0,,,
2.368000,-77.7500,0,,,
2.378000,-76.7500,0,,,
2.388000,-82.6250,0,,,
2.398000,-81.2500,0,,,
2.408000,-81.8750,0,,,
2.418000,-78.5000,0,,,
2.428000,-81.6250,0,,,
2.438000,-85.6250,0,,,
2.448000,-84.8750,0,,,
2.458000,-81.6250,0,,,
2.468000,-80.0000,0,,,
2.478000,-86.8750,0,,,
2.488000,-85.6250,0,,,
2.498000,-84.6250,0,,,
2.508000,-81.6250,0,,,
2.518000,-88.7500,0,,,
2.528000,-86.1250,0,,,
2.538000,-87.3750,0,,,
2.548000,-86.1250,0,,,
2.558000,-87.0000,0,,,
2.568000,-84.8750,0,,,
2.578000,-86.3750,0,,,
2.588000,-84.2500,0,,,
2.598000,-86.0000,0,,,
2.608000,-86.7500,0,,,
2.618000,-87.2500,0,,,
2.628000,-88.5000,0,,,
2.638000,-89.7500,0,,,
2.648000,-88.1250,0,,,
2.658000,-91.2500,0,,,
2.668000,-90.1250,0,,,
2.678000,-93.3750,0,,,
2.688000,-90.5000,0,,,
2.698000,-92.1250,0,,,
2.708000,-92.0000,0,,,
2.718000,-93.5000,0,,,
2.728000,-89.5000,0,,,
2.738000,-85.1250,0,,,
2.748000,-73.1250,0,,,
2.758000,-86.8750,0,,,
2.768000,-106.3750,0,,,
2.778000,-104.3750,0,,,
2.788000,-86.6250,0,,,
2.798000,-86.0000,0,,,
2.808000,-90.0000,0,,,
2.818000,-88.3750,0,,,
2.828000,-88.5000,0,,,
2.838000,-89.3750,0,,,
2.848000,-88.7500,0,,,
2.858000,-90.5000,0,,,
2.868000,-88.2500,0,,,
2.878000,-87.7500,0,,,
2.888000,-86.8750,0,,,
2.898000,-87.6250,0,,,
2.908000,-84.8750,0,,,
2.918000,-84.5000,0,,,
2.928000,-84.6250,0,,,
2.938000,-86.6250,0,,,
2.948000,-82.0000,0,,,
2.958000,-70.8750,0,,,
2.968000,-78.5000,0,,,
2.978000,-75.8750,0,,,
2.988000,-80.1250,0,,,
2.998000,-83.7500,0,,,
3.008000,-88.8750,0,,,
3.018000,-89.1250,0,,,
3.028000,-90.8750,0,,,
3.038000,-91.2500,0,,,
3.048000,-93.2500,0,,,
3.058000,-93.3750,0,,,
3.068000,-94.7500,0,,,
3.078000,-94.3750,0,,,
3.088000,-95.6250,0,,,
3.098000,-95.2500,0,,,
3.108000,-95.3750,0,,,
3.118000,-95.3750,0,,,
3.128000,-96.1250,0,,,
3.138000,-95.5000,0,,,
3.148000,-94.3750,0,,,
3.158000,-96.3750,0,,,
3.168000,-96.1250,0,,,
3.178000,-97.2500,0,,,
3.188000,-94.7500,0,,,
3.198000,-96.1250,0,,,
3.208000,-94.5000,0,,,
3.218000,-97.0000,0,,,
3.228000,-94.3750,0,,,
3.238000,-95.2500,0,,,
3.248000,-95.3750,0,,,
3.258000,-96.8750,0,,,
3.268000,-94.0000,0,,,
3.278000,-97.6250,0,,,
3.288000,-96.7500,0,,,
3.298000,-96.6250,0,,,
3.308000,-95.2500,0,,,
3.318000,-96.6250,0,,,
3.328000,-94.6250,0,,,
3.338000,-96.5000,0,,,
3.348000,-97.0000,0,,,
3.358000,-96.2500,0,,,
3.368000,-98.2500,0,,,
3.378000,-98.1250,0,,,
3.388000,-98.7500,0,,,
3.398000,-97.8750,0,,,
3.408000,-99.5000,0,,,
3.418000,-97.5000,0,,,
3.428000,-100.3750,0,,,
3.438000,-98.3750,0,,,
3.448000,-101.8750,0,,,
3.458000,-98.6250,0,,,
3.468000,-102.5000,0,,,
3.478000,-97.2500,0,,,
3.488000,-91.8750,0,,,
3.498000,-85.5000,0,,,
3.508000,-97.3750,0,,,
3.518000,-112.8750,0,,,
3.528000,-108.2500,0,,,
3.538000,-91.3750,0,,,
3.548000,-95.0000,0,,,
3.558000,-94.7500,0,,,
3.568000,-97.7500,0,,,
3.578000,-96.1250,0,,,
3.588000,-96.2500,0,,,
3.598000,-93.1250,0,,,
3.608000,-95.6250,0,,,
3.618000,-92.3750,0,,,
3.628000,-93.7500,0,,,
3.638000,-91.7500,0,,,
3.648000,-91.8750,0,,,
3.658000,-87.3750,0,,,
3.668000,-90.2500,0,,,
3.678000,-86.7500,0,,,
3.688000,-88.3750,0,,,
3.698000,-85.5000,0,,,
3.708000,-86.6250,0,,,
3.718000,-85.0000,0,,,
3.728000,-88.5000,0,,,
3.738000,-88.1250,0,,,
3.748000,-92.8750,0,,,
3.758000,-94.6250,0,,,
3.768000,-98.6250,0,,,
3.778000,-97.3750,0,,,
3.788000,-99.5000,0,,,
3.798000,-98.8750,0,,,
3.808000,-100.8750,0,,,
3.818000,-100.2500,0,,,
3.828000,-101.5000,0,,,
3.838000,-99.5000,0,,,
3.848000,-100.7500,0,,,
3.858000,-99.1250,0,,,
3.868000,-101.3750,0,,,
3.878000,-98.6250,0,,,
3.888000,-101.0000,0,,,
3.898000,-99.7500,0,,,
3.908000,-100.6250,0,,,
3.918000,-97.6250,0,,,
3.928000,-99.7500,0,,,
3.938000,-98.5000,0,,,
3.948000,-100.2500,0,,,
3.958000,-98.3750,0,,,
3.968000,-99.5000,0,,,
3.978000,-98.2500,0,,,
3.988000,-97.0000,0,,,
3.998000,-99.8750,0,,,
4.008000,-97.6250,0,,,
4.018000,-100.8750,0,,,
4.028000,-97.5000,0,,,
4.038000,-96.7500,0,,,
4.048000,-95.3750,0,,,
4.058000,-94.5000,0,,,
4.068000,-94.0000,0,,,
4.078000,-96.1250,0,,,
4.088000,-94.6250,0,,,
4.098000,-82.1250,0,,,
4.108000,-90.1250,0,,,
4.118000,-86.1250,0,,,
4.128000,-85.2500,0,,,
4.138000,-82.7500,0,,,
4.148000,-77.7500,0,,,
4.158000,-73.8750,0,,,
4.168000,-76.7500,0,,,
4.178000,-84.0000,0,,,
4.188000,-88.6250,0,,,
4.198000,-90.1250,0,,,
4.208000,-90.8750,0,,,
4.218000,-91.7500,0,,,
4.228000,-92.8750,0,,,
4.238000,-92.2500,0,,,
4.248000,-92.6250,0,,,
4.258000,-94.0000,0,,,
4.268000,-93.5000,0,,,
4.278000,-89.6250,0,,,
4.288000,-91.2500,0,,,
4.298000,-81.7500,0,,,
4.308000,-84.7500,0,,,
4.318000,-82.8750,0,,,
4.328000,-117.1250,0,,,
4.338000,-116.8750,0,,,
4.348000,-140.6250,0,,,
4.358000,520.8750,0,,,
4.368000,-115.8750,0,,,
4.378000,246.5000,0,,,
4.388000,-156.1250,0,,,
4.398000,512.7500,0,,,
4.408000,-133.0000,0,,,
4.418000,413.2500,0,,,
4.428000,-161.8750,0,,,
4.438000,566.7500,0,,,
4.448000,-159.1250,0,,,
4.458000,569.3750,0,,,
4.468000,-164.2500,0,,,
4.478000,563.8750,0,,,
4.488000,-169.8750,0,,,
4.498000,540.3750,0,,,
4.508000,-184.3750,0,,,
4.518000,-159.8750,0,,,
4.528000,-218.8750,0,,,
4.538000,-153.6250,0,,,
4.548000,-282.8750,0,,,
4.558000,-44.0000,0,,,
4.568000,373.2500,0,,,
4.578000,393.6250,0,,,
4.588000,251.8750,0,,,
4.598000,-314.6250,0,,,
4.608000,-397.8750,0,,,
4.618000,-346.3750,0,,,
4.628000,247.7500,0,,,
4.638000,252.6250,0,,,
4.648000,38.3750,0,,,
4.658000,-357.2500,0,,,
4.668000,-420.8750,0,,,
4.678000,-419.0000,0,,,
4.688000,-113.0000,0,,,
4.698000,-490.0000,0,,,
4.708000,-225.6250,0,,,
4.718000,-268.3750,0,,,
4.728000,-433.3750,0,,,
4.738000,-252.1250,0,,,
4.748000,386.2500,0,,,
4.758000,-414.6250,0,,,
4.768000,378.8750,0,,,
4.778000,368.3750,0,,,
4.788000,378.0000,0,,,
4.798000,380.5000,0,,,
4.808000,373.7500,0,,,
4.818000,-369.8750,0,,,
4.828000,-506.3750,0,,,
4.838000,-155.3750,0,,,
4.848000,-181.2500,0,,,
4.858000,235.5000,0,,,
4.868000,-497.1250,0,,,
4.878000,232.6250,0,,,
4.888000,-515.8750,0,,,
4.898000,236.6250,0,,,
4.908000,-499.6250,0,,,
4.918000,6.8750,0,,,
4.928000,-526.8750,0,,,
4.938000,371.8750,0,,,
4.948000,380.5000,0,,,
4.958000,374.8750,0,,,
4.968000,-54.6250,0,,,
4.978000,-65.5000,0,,,
4.988000,-82.1250,0,,,
4.998000,-430.6250,0,,,
5.008000,-594.8750,0,,,
5.018000,-566.7500,0,,,
5.028000,-409.2500,0,,,
5.038000,-401.3750,0,,,
5.048000,-393.8750,0,,,
5.058000,-385.7500,0,,,
5.068000,-376.1250,0,,,
5.078000,-368.7500,0,,,
5.088000,-359.7500,0,,,
5.098000,-349.8750,0,,,
5.108000,-343.6250,0,,,
5.118000,-332.7500,0,,,
5.128000,-313.0000,0,,,
5.138000,-315.6250,0,,,
5.148000,-311.8750,0,,,
5.158000,-305.1250,0,,,
5.168000,-285.7500,0,,,
5.178000,-281.1250,0,,,
5.188000,-277.7500,0,,,
5.198000,-274.7500,0,,,
5.208000,-271.1250,0,,,
5.218000,-270.1250,0,,,
5.228000,-265.5000,0,,,
5.238000,-259.5000,0,,,
5.248000,-241.7500,0,,,
5.258000,-246.3750,0,,,
5.268000,-261.0000,0,,,
5.278000,-262.3750,0,,,
5.288000,-234.2500,0,,,
5.298000,-236.1250,0,,,
5.308000,-234.2500,0,,,
5.318000,-235.3750,0,,,
5.328000,-230.0000,0,,,
5.338000,-228.8750,0,,,
5.348000,-225.6250,0,,,
5.358000,-224.3750,0,,,
5.368000,-220.5000,0,,,
5.378000,-219.0000,0,,,
5.388000,-214.3750,0,,,
5.398000,-213.1250,0,,,
5.408000,-208.0000,0,,,
5.418000,-207.2500,0,,,
5.428000,-201.1250,0,,,
5.438000,-200.5000,0,,,
5.448000,-195.3750,0,,,
5.458000,-192.0000,0,,,
5.468000,-192.6250,0,,,
5.478000,-193.7500,0,,,
5.488000,-191.3750,0,,,
5.498000,-190.2500,0,,,
5.508000,-190.7500,0,,,
5.518000,-187.1250,0,,,
5.528000,-186.3750,0,,,
5.538000,-183.3750,0,,,
5.548000,-182.2500,0,,,
5.558000,-179.5000,3,,-0.62,-0.80
5.568000,-179.0000,3,,-0.62,-0.80
5.578000,-176.2500,3,,-0.62,-0.80
5.588000,-174.8750,3,,-0.62,-0.80
5.598000,-171.2500,3,,-0.62,-0.80
5.608000,-170.8750,3,,-0.62,-0.80
5.618000,-167.0000,3,,-0.62,-0.80
5.628000,-166.8750,3,,-0.62,-0.80
5.638000,-163.7500,3,,-0.62,-0.80
5.648000,-163.3750,3,,-0.62,-0.80
5.658000,-160.2500,3,,-0.62,-0.80
5.668000,-160.3750,3,,-0.62,-0.80
5.678000,-156.6250,3,,-0.62,-0.80
5.688000,-157.3750,3,,-0.62,-0.80
5.698000,-153.8750,3,,-0.62,-0.80
5.708000,-154.7500,3,,-0.62,-0.80
5.718000,-151.5000,3,,-0.62,-0.80
5.728000,-151.7500,3,,-0.62,-0.80
5.738000,-149.1250,3,,-0.62,-0.80
5.748000,-148.1250,3,,-0.62,-0.80
5.758000,-146.2500,3,,-0.62,-0.80
5.768000,-144.7500,3,,-0.62,-0.80
5.778000,-142.3750,3,,-0.62,-0.80
5.788000,-140.8750,3,,-0.62,-0.80
5.798000,-139.7500,3,,-0.62,-0.80
5.808000,-138.1250,3,,-0.62,-0.80
5.818000,-137.7500,3,,-0.62,-0.80
5.828000,-136.5000,3,,-0.62,-0.80
5.838000,-137.3750,3,,-0.62,-0.80
5.848000,-135.8750,3,,-0.62,-0.80
5.858000,-135.3750,3,,-0.62,-0.80
5.868000,-133.5000,3,,-0.62,-0.80
5.878000,-133.0000,3,,-0.62,-0.80
5.888000,-131.5000,3,,-0.62,-0.80
5.898000,-131.3750,3,,-0.62,-0.80
5.908000,-129.7500,3,,-0.62,-0.80
5.918000,-127.8750,3,,-0.62,-0.80
5.928000,-118.5000,3,,-0.62,-0.80
5.938000,-106.7500,3,,-0.62,-0.80
5.948000,-114.7500,3,,-0.62,-0.80
5.958000,-136.6250,3,,-0.62,-0.80
5.968000,-136.8750,3,,-0.62,-0.80
5.978000,-115.3750,3,,-0.62,-0.80
5.988000,-113.3750,3,,-0.62,-0.80
5.998000,-115.7500,3,,-0.62,-0.80
6.008000,-115.3750,3,,-0.62,-0.80
6.018000,-113.6250,3,,-0.62,-0.80
6.028000,-113.5000,3,,-0.62,-0.80
6.038000,-110.7500,3,,-0.62,-0.80
6.048000,-111.0000,3,,-0.62,-0.80
6.058000,-108.6250,3,,-0.62,-0.80
6.068000,-109.0000,3,,-0.62,-0.80
6.078000,-105.3750,3,,-0.62,-0.80
6.088000,-105.5000,3,,-0.62,-0.80
6.098000,-101.1250,3,,-0.62,-0.80
6.108000,-101.7500,3,,-0.62,-0.80
6.118000,-96.5000,3,,-0.62,-0.80
6.128000,-96.6250,3,,-0.62,-0.80
6.138000,-91.2500,3,,-0.62,-0.80
6.148000,-92.0000,3,,-0.62,-0.80
6.158000,-90.5000,3,,-0.62,-0.80
6.168000,-88.6250,3,,-0.62,-0.80
6.178000,-92.8750,3,,-0.62,-0.80
6.188000,-76.1250,3,,-0.62,-0.80
6.198000,-98.5000,3,,-0.62,-0.80
6.208000,-63.7500,3,,-0.62,-0.80
6.218000,-102.2500,3,,-0.62,-0.80
6.228000,-39.6250,3,,-0.62,-0.80
6.238000,-102.3750,3,,-0.62,-0.80
6.248000,-5.6250,3,,-0.62,-0.80
6.258000,-103.1250,3,,-0.62,-0.80
6.268000,22.2500,3,,-0.62,-0.80
6.278000,-104.5000,3,,-0.62,-0.80
6.288000,64.8750,3,,-0.62,-0.80
6.298000,-105.0000,3,,-0.62,-0.80
6.308000,83.3750,3,,-0.62,-0.80
6.318000,-105.8750,3,,-0.62,-0.80
6.328000,129.3750,3,,-0.62,-0.80
6.338000,-106.6250,3,,-0.62,-0.80
6.348000,172.5000,3,,-0.62,-0.80
6.358000,-106.0000,3,,-0.62,-0.80
6.368000,212.3750,3,,-0.62,-0.80
6.378000,-107.3750,3,,-0.62,-0.80
6.388000,254.8750,3,,-0.62,-0.80
6.398000,-111.5000,3,,-0.62,-0.80
6.408000,304.3750,3,,-0.62,-0.80
6.418000,-115.2500,3,,-0.62,-0.80
6.428000,206.6250,3,,-0.62,-0.80
6.438000,-117.5000,3,,-0.62,-0.80
6.448000,233.0000,3,,-0.62,-0.80
6.458000,-119.5000,3,,-0.62,-0.80
6.468000,283.2500,3,,-0.62,-0.80
6.478000,-48.6250,3,,-0.62,-0.80
6.488000,297.0000,3,,-0.62,-0.80
6.498000,-26.5000,3,,-0.62,-0.80
6.508000,324.0000,3,,-0.62,-0.80
6.518000,-27.7500,3,,-0.62,-0.80
6.528000,155.5000,3,,-0.62,-0.80
6.538000,-5.5000,3,,-0.62,-0.80
6.548000,190.3750,3,,-0.62,-0.80
6.558000,-8.8750,3,,-0.62,-0.80
6.568000,195.0000,3,,-0.62,-0.80
6.578000,184.5000,3,,-0.62,-0.80
6.588000,215.0000,3,,-0.62,-0.80
6.598000,184.5000,3,,-0.62,-0.80
6.608000,236.0000,3,,-0.62,-0.80
6.618000,195.1250,3,,-0.62,-0.80
6.628000,52.1250,3,,-0.62,-0.80
6.638000,191.3750,3,,-0.62,-0.80
6.648000,67.3750,3,,-0.62,-0.80
6.658000,195.2500,3,,-0.62,-0.80
6.668000,82.3750,3,,-0.62,-0.80
6.678000,387.0000,3,,-0.62,-0.80
6.688000,86.6250,3,,-0.62,-0.80
6.698000,388.6250,3,,-0.62,-0.80
6.708000,97.2500,3,,-0.62,-0.80
6.718000,382.7500,3,,-0.62,-0.80
6.728000,-75.0000,3,,-0.62,-0.80
6.738000,378.3750,3,,-0.62,-0.80
6.748000,-67.8750,3,,-0.62,-0.80
6.758000,374.3750,3,,-0.62,-0.80
6.768000,-71.5000,3,,-0.62,-0.80
6.778000,486.2500,3,,-0.62,-0.80
6.788000,-71.5000,3,,-0.62,-0.80
6.798000,485.8750,3,,-0.62,-0.80
6.808000,-67.6250,3,,-0.62,-0.80
6.818000,484.5000,3,,-0.62,-0.80
6.828000,-163.0000,3,,-0.62,-0.80
6.838000,468.7500,3,,-0.62,-0.80
6.848000,-165.2500,3,,-0.62,-0.80
6.858000,465.0000,3,,-0.62,-0.80
6.868000,-170.5000,3,,-0.62,-0.80
6.878000,450.6250,3,,-0.62,-0.80
6.888000,-177.1250,3,,-0.62,-0.80
6.898000,519.1250,3,,-0.62,-0.80
6.908000,-186.5000,3,,-0.62,-0.80
6.918000,512.6250,3,,-0.62,-0.80
6.928000,-184.6250,3,,-0.62,-0.80
6.938000,508.3750,3,,-0.62,-0.80
6.948000,-225.0000,3,,-0.62,-0.80
6.958000,497.1250,3,,-0.62,-0.80
6.968000,-231.2500,3,,-0.62,-0.80
6.978000,485.7500,3,,-0.62,-0.80
6.988000,-237.1250,3,,-0.62,-0.80
6.998000,501.0000,3,,-0.62,-0.80
7.008000,-237.3750,3,,-0.62,-0.80
7.018000,507.6250,3,,-0.62,-0.80
7.028000,-244.5000,3,,-0.62,-0.80
7.038000,498.7500,3,,-0.62,-0.80
7.048000,-237.8750,3,,-0.62,-0.80
7.058000,491.7500,3,,-0.62,-0.80
7.068000,-244.5000,3,,-0.62,-0.80
7.078000,480.0000,3,,-0.62,-0.80
7.088000,-253.8750,3,,-0.62,-0.80
7.098000,460.2500,3,,-0.62,-0.80
7.108000,-260.3750,3,,-0.62,-0.80
7.118000,454.2500,3,,-0.62,-0.80
7.128000,-277.0000,3,,-0.62,-0.80
7.138000,461.5000,3,,-0.62,-0.80
7.148000,-281.2500,3,,-0.62,-0.80
7.158000,441.7500,3,,-0.62,-0.80
7.168000,-262.7500,3,,-0.62,-0.80
7.178000,429.0000,3,,-0.62,-0.80
7.188000,-272.1250,3,,-0.62,-0.80
7.198000,410.2500,3,,-0.62,-0.80
7.208000,-294.0000,3,,-0.62,-0.80
7.218000,405.6250,3,,-0.62,-0.80
7.228000,-295.1250,3,,-0.62,-0.80
7.238000,404.6250,3,,-0.62,-0.80
7.248000,-298.1250,3,,-0.62,-0.80
7.258000,393.1250,3,,-0.62,-0.80
7.268000,-299.5000,3,,-0.62,-0.80
7.278000,388.7500,3,,-0.62,-0.80
7.288000,-293.5000,3,,-0.62,-0.80
7.298000,389.8750,3,,-0.62,-0.80
7.308000,-302.6250,3,,-0.62,-0.80
7.318000,380.8750,3,,-0.62,-0.80
7.328000,-308.8750,3,,-0.62,-0.80
7.338000,378.3750,3,,-0.62,-0.80
7.348000,-309.1250,3,,-0.62,-0.80
7.358000,380.7500,3,,-0.62,-0.80
7.368000,-313.7500,3,,-0.62,-0.80
7.378000,372.2500,3,,-0.62,-0.80
7.388000,-325.6250,3,,-0.62,-0.80
7.398000,373.6250,3,,-0.62,-0.80
7.408000,-323.8750,3,,-0.62,-0.80
7.418000,306.6250,3,,-0.62,-0.80
7.428000,169.0000,3,,-0.62,-0.80
7.438000,299.2500,3,,-0.62,-0.80
7.448000,-351.5000,3,,-0.62,-0.80
7.458000,350.8750,3,,-0.62,-0.80
7.468000,102.1250,3,,-0.62,-0.80
7.478000,148.7500,3,,-0.62,-0.80
7.488000,-314.3750,3,,-0.62,-0.80
7.498000,22.7500,3,,-0.62,-0.80
7.508000,290.2500,3,,-0.62,-0.80
7.518000,-182.1250,3,,-0.62,-0.80
7.528000,-359.1250,3,,-0.62,-0.80
7.538000,-195.0000,3,,-0.62,-0.80
7.548000,281.6250,3,,-0.62,-0.80
7.558000,281.3750,3,,-0.62,-0.80
7.568000,156.3750,3,,-0.62,-0.80
7.578000,-352.5000,3,,-0.62,-0.80
7.588000,147.3750,3,,-0.62,-0.80
7.598000,-353.6250,3,,-0.62,-0.80
7.608000,136.8750,3,,-0.62,-0.80
7.618000,-362.2500,3,,-0.62,-0.80
7.628000,299.8750,3,,-0.62,-0.80
7.638000,-411.2500,3,,-0.62,-0.80
7.648000,-425.7500,3,,-0.62,-0.80
7.658000,-421.1250,3,,-0.62,-0.80
7.668000,263.7500,3,,-0.62,-0.80
7.678000,-419.7500,3,,-0.62,-0.80
7.688000,-424.6250,3,,-0.62,-0.80
7.698000,147.3750,3,,-0.62,-0.80
7.708000,-407.6250,3,,-0.62,-0.80
7.718000,-253.1250,3,,-0.62,-0.80
7.728000,-445.0000,3,,-0.62,-0.80
7.738000,139.6250,3,,-0.62,-0.80
7.748000,-445.6250,3,,-0.62,-0.80
7.758000,226.5000,3,,-0.62,-0.80
7.768000,105.6250,3,,-0.62,-0.80
7.778000,-383.8750,3,,-0.62,-0.80
7.788000,94.5000,3,,-0.62,-0.80
7.798000,-382.3750,3,,-0.62,-0.80
7.808000,215.3750,3,,-0.62,-0.80
7.818000,-375.2500,3,,-0.62,-0.80
7.828000,202.8750,3,,-0.62,-0.80
7.838000,-379.2500,3,,-0.62,-0.80
7.848000,203.7500,3,,-0.62,-0.80
7.858000,184.3750,3,,-0.62,-0.80
7.868000,-145.2500,3,,-0.62,-0.80
7.878000,-346.0000,3,,-0.62,-0.80
7.888000,252.8750,3,,-0.62,-0.80
7.898000,253.7500,3,,-0.62,-0.80
7.908000,-478.6250,3,,-0.62,-0.80
7.918000,-469.7500,3,,-0.62,-0.80
7.928000,-476.5000,3,,-0.62,-0.80
7.938000,-404.6250,3,,-0.62,-0.80
7.948000,266.5000,3,,-0.62,-0.80
7.958000,267.6250,3,,-0.62,-0.80
7.968000,-468.2500,3,,-0.62,-0.80
7.978000,-452.8750,3,,-0.62,-0.80
7.988000,253.5000,3,,-0.62,-0.80
7.998000,267.3750,3,,-0.62,-0.80
8.008000,252.2500,3,,-0.62,-0.80
8.018000,-411.1250,3,,-0.62,-0.80
8.028000,271.7500,3,,-0.62,-0.80
8.038000,-406.3750,3,,-0.62,-0.80
8.048000,285.1250,3,,-0.62,-0.80
8.058000,-462.1250,3,,-0.62,-0.80
8.068000,264.0000,3,,-0.62,-0.80
8.078000,-459.7500,3,,-0.62,-0.80
8.088000,-410.8750,3,,-0.62,-0.80
8.098000,-412.8750,3,,-0.62,-0.80
8.108000,-419.6250,3,,-0.62,-0.80
8.118000,-412.5000,3,,-0.62,-0.80
8.128000,248.2500,3,,-0.62,-0.80
8.138000,-195.8750,3,,-0.62,-0.80
8.148000,253.6250,3,,-0.62,-0.80
8.158000,257.8750,3,,-0.62,-0.80
8.168000,-139.1250,3,,-0.62,-0.80
8.178000,-142.1250,3,,-0.62,-0.80
8.188000,-136.7500,3,,-0.62,-0.80
8.198000,51.0000,3,,-0.62,-0.80
8.208000,-127.6250,3,,-0.62,-0.80
8.218000,47.5000,3,,-0.62,-0.80
8.228000,-126.6250,3,,-0.62,-0.80
8.238000,-439.5000,3,,-0.62,-0.80
8.248000,-97.6250,3,,-0.62,-0.80
8.258000,272.3750,3,,-0.62,-0.80
8.268000,169.7500,3,,-0.62,-0.80
8.278000,-4.5000,3,,-0.62,-0.80
8.288000,-8.3750,3,,-0.62,-0.80
8.298000,-19.8750,3,,-0.62,-0.80
8.308000,245.7500,3,,-0.62,-0.80
8.318000,-394.2500,3,,-0.62,-0.80
8.328000,-421.3750,3,,-0.62,-0.80
8.338000,-453.6250,3,,-0.62,-0.80
8.348000,-224.1250,3,,-0.62,-0.80
8.358000,168.8750,3,,-0.62,-0.80
8.368000,257.7500,3,,-0.62,-0.80
8.378000,-6.6250,3,,-0.62,-0.80
8.388000,252.2500,3,,-0.62,-0.80
8.398000,-314.1250,3,,-0.62,-0.80
8.408000,17.7500,3,,-0.62,-0.80
8.418000,-137.5000,3,,-0.62,-0.80
8.428000,22.2500,3,,-0.62,-0.80
8.438000,-140.5000,3,,-0.62,-0.80
8.448000,264.5000,3,,-0.62,-0.80
8.458000,-471.2500,3,,-0.62,-0.80
8.468000,270.3750,3,,-0.62,-0.80
8.478000,-475.5000,3,,-0.62,-0.80
8.488000,274.6250,3,,-0.62,-0.80
8.498000,-451.7500,3,,-0.62,-0.80
8.508000,-183.3750,3,,-0.62,-0.80
8.518000,-136.7500,3,,-0.62,-0.80
8.528000,-181.2500,3,,-0.62,-0.80
8.538000,-132.1250,3,,-0.62,-0.80
8.548000,2.1250,3,,-0.62,-0.80
8.558000,-474.7500,3,,-0.62,-0.80
8.568000,262.1250,3,,-0.62,-0.80
8.578000,-469.3750,3,,-0.62,-0.80
8.588000,255.3750,3,,-0.62,-0.80
8.598000,-452.3750,3,,-0.62,-0.80
8.608000,236.1250,3,,-0.62,-0.80
8.618000,-457.7500,3,,-0.62,-0.80
8.628000,230.8750,3,,-0.62,-0.80
8.638000,-400.6250,3,,-0.62,-0.80
8.648000,229.1250,3,,-0.62,-0.80
8.658000,-398.0000,3,,-0.62,-0.80
8.668000,229.8750,3,,-0.62,-0.80
8.678000,-400.6250,3,,-0.62,-0.80
8.688000,117.6250,3,,-0.62,-0.80
8.698000,-400.5000,3,,-0.62,-0.80
8.708000,113.7500,3,,-0.62,-0.80
8.718000,-407.8750,3,,-0.62,-0.80
8.728000,127.0000,3,,-0.62,-0.80
8.738000,-409.5000,3,,-0.62,-0.80
8.748000,141.0000,3,,-0.62,-0.80
8.758000,-256.2500,3,,-0.62,-0.80
8.768000,-50.3750,3,,-0.62,-0.80
8.778000,-77.3750,3,,-0.62,-0.80
8.788000,-41.8750,3,,-0.62,-0.80
8.798000,-87.5000,3,,-0.62,-0.80
8.808000,-226.2500,3,,-0.62,-0.80
8.818000,-81.0000,3,,-0.62,-0.80
8.828000,-222.0000,3,,-0.62,-0.80
8.838000,-91.5000,3,,-0.62,-0.80
8.848000,-220.7500,3,,-0.62,-0.80
8.858000,95.2500,3,,-0.62,-0.80
8.868000,-211.2500,3,,-0.62,-0.80
8.878000,89.7500,3,,-0.62,-0.80
8.888000,-205.8750,3,,-0.62,-0.80
8.898000,80.1250,5,,-1.96,-2.18
8.908000,-362.2500,5,,-1.96,-2.18
8.918000,84.1250,5,,-1.96,-2.18
8.928000,-361.8750,5,,-1.96,-2.18
8.938000,79.7500,5,,-1.96,-2.18
8.948000,-366.1250,5,,-1.96,-2.18
8.958000,187.8750,5,,-1.96,-2.18
8.968000,-358.5000,5,,-1.96,-2.18
8.978000,191.6250,5,,-1.96,-2.18
8.988000,-360.3750,5,,-1.96,-2.18
8.998000,191.5000,5,,-1.96,-2.18
9.008000,-351.1250,5,,-1.96,-2.18
9.018000,186.5000,5,,-1.96,-2.18
9.028000,-445.2500,5,,-1.96,-2.18
9.038000,187.7500,5,,-1.96,-2.18
9.048000,-440.0000,5,,-1.96,-2.18
9.058000,179.0000,5,,-1.96,-2.18
9.068000,-443.8750,5,,-1.96,-2.18
9.078000,254.8750,5,,-1.96,-2.18
9.088000,-432.8750,5,,-1.96,-2.18
9.098000,258.5000,5,,-1.96,-2.18
9.108000,-435.7500,5,,-1.96,-2.18
9.118000,255.1250,5,,-1.96,-2.18
9.128000,-473.6250,5,,-1.96,-2.18
9.138000,242.2500,5,,-1.96,-2.18
9.148000,-470.3750,5,,-1.96,-2.18
9.158000,247.2500,5,,-1.96,-2.18
9.168000,-469.8750,5,,-1.96,-2.18
9.178000,269.1250,5,,-1.96,-2.18
9.188000,-481.0000,5,,-1.96,-2.18
9.198000,268.0000,5,,-1.96,-2.18
9.208000,-474.6250,5,,-1.96,-2.18
9.218000,282.1250,5,,-1.96,-2.18
9.228000,-461.8750,5,,-1.96,-2.18
9.238000,278.2500,5,,-1.96,-2.18
9.248000,-472.6250,5,,-1.96,-2.18
9.258000,278.0000,5,,-1.96,-2.18
9.268000,-469.6250,5,,-1.96,-2.18
9.278000,259.2500,5,,-1.96,-2.18
9.288000,-469.7500,5,,-1.96,-2.18
9.298000,259.3750,5,,-1.96,-2.18
9.308000,-469.5000,5,,-1.96,-2.18
9.318000,251.8750,5,,-1.96,-2.18
9.328000,-478.7500,5,,-1.96,-2.18
9.338000,256.5000,5,,-1.96,-2.18
9.348000,-466.6250,5,,-1.96,-2.18
9.358000,258.3750,5,,-1.96,-2.18
9.368000,-464.7500,5,,-1.96,-2.18
9.378000,267.2500,5,,-1.96,-2.18
9.388000,-469.7500,5,,-1.96,-2.18
9.398000,229.0000,5,,-1.96,-2.18
9.408000,-464.8750,5,,-1.96,-2.18
9.418000,238.8750,5,,-1.96,-2.18
9.428000,-466.1250,5,,-1.96,-2.18
9.438000,234.2500,5,,-1.96,-2.18
9.448000,-451.5000,5,,-1.96,-2.18
9.458000,232.3750,5,,-1.96,-2.18
9.468000,-454.0000,5,,-1.96,-2.18
9.478000,244.5000,5,,-1.96,-2.18
9.488000,-455.1250,5,,-1.96,-2.18
9.498000,240.6250,5,,-1.96,-2.18
9.508000,-452.3750,5,,-1.96,-2.18
9.518000,235.6250,5,,-1.96,-2.18
9.528000,-453.3750,5,,-1.96,-2.18
9.538000,242.8750,5,,-1.96,-2.18
9.548000,-440.3750,5,,-1.96,-2.18
9.558000,242.0000,5,,-1.96,-2.18
9.568000,-437.7500,5,,-1.96,-2.18
9.578000,237.3750,5,,-1.96,-2.18
9.588000,-441.1250,5,,-1.96,-2.18
9.598000,239.1250,5,,-1.96,-2.18
9.608000,-453.6250,5,,-1.96,-2.18
9.618000,176.1250,5,,-1.96,-2.18
9.628000,-456.7500,5,,-1.96,-2.18
9.638000,177.2500,5,,-1.96,-2.18
9.648000,-463.1250,5,,-1.96,-2.18
9.658000,187.3750,5,,-1.96,-2.18
9.668000,-359.2500,5,,-1.96,-2.18
9.678000,180.3750,5,,-1.96,-2.18
9.688000,-348.0000,5,,-1.96,-2.18
9.698000,213.5000,5,,-1.96,-2.18
9.708000,-343.1250,5,,-1.96,-2.18
9.718000,58.0000,5,,-1.96,-2.18
9.728000,-351.5000,5,,-1.96,-2.18
9.738000,59.3750,5,,-1.96,-2.18
9.748000,-356.0000,5,,-1.96,-2.18
9.758000,64.6250,5,,-1.96,-2.18
9.768000,-170.7500,5,,-1.96,-2.18
9.778000,71.7500,5,,-1.96,-2.18
9.788000,-168.7500,5,,-1.96,-2.18
9.798000,81.0000,5,,-1.96,-2.18
9.808000,-177.1250,5,,-1.96,-2.18
9.818000,-97.6250,5,,-1.96,-2.18
9.828000,-179.7500,5,,-1.96,-2.18
9.838000,-95.7500,5,,-1.96,-2.18
9.848000,-193.1250,5,,-1.96,-2.18
9.858000,-82.5000,5,,-1.96,-2.18
9.868000,-188.7500,5,,-1.96,-2.18
9.878000,-77.8750,5,,-1.96,-2.18
9.888000,-6.6250,5,,-1.96,-2.18
9.898000,-69.6250,5,,-1.96,-2.18
9.908000,-13.7500,5,,-1.96,-2.18
9.918000,-65.3750,5,,-1.96,-2.18
9.928000,-23.7500,5,,-1.96,-2.18
9.938000,-254.6250,5,,-1.96,-2.18
9.948000,-17.7500,5,,-1.96,-2.18
9.958000,-240.2500,5,,-1.96,-2.18
9.968000,-36.2500,5,,-1.96,-2.18
9.978000,-234.2500,5,,-1.96,-2.18
9.988000,157.2500,5,,-1.96,-2.18
9.998000,-235.1250,5,,-1.96,-2.18
10.008000,149.2500,5,,-1.96,-2.18
10.018000,-229.8750,5,,-1.96,-2.18
10.028000,151.3750,5,,-1.96,-2.18
10.038000,-366.2500,5,,-1.96,-2.18
10.048000,146.1250,5,,-1.96,-2.18
10.058000,-365.5000,5,,-1.96,-2.18
10.068000,141.7500,5,,-1.96,-2.18
10.078000,-359.6250,5,,-1.96,-2.18
10.088000,249.3750,5,,-1.96,-2.18
10.098000,-349.7500,5,,-1.96,-2.18
10.108000,248.8750,5,,-1.96,-2.18
10.118000,-347.8750,5,,-1.96,-2.18
10.128000,244.3750,5,,-1.96,-2.18
10.138000,-426.2500,5,,-1.96,-2.18
10.148000,245.5000,5,,-1.96,-2.18
10.158000,-422.6250,5,,-1.96,-2.18
10.168000,235.1250,5,,-1.96,-2.18
10.178000,-423.5000,5,,-1.96,-2.18
10.188000,244.8750,5,,-1.96,-2.18
10.198000,-410.6250,5,,-1.96,-2.18
10.208000,301.5000,5,,-1.96,-2.18
10.218000,-411.2500,5,,-1.96,-2.18
10.228000,304.3750,5,,-1.96,-2.18
10.238000,-408.1250,5,,-1.96,-2.18
10.248000,309.7500,5,,-1.96,-2.18
10.258000,-439.3750,5,,-1.96,-2.18
10.268000,290.7500,5,,-1.96,-2.18
10.278000,-443.3750,5,,-1.96,-2.18
10.288000,297.3750,5,,-1.96,-2.18
10.298000,-447.2500,5,,-1.96,-2.18
10.308000,294.1250,5,,-1.96,-2.18
10.318000,-447.1250,5,,-1.96,-2.18
10.328000,294.0000,5,,-1.96,-2.18
10.338000,-460.1250,5,,-1.96,-2.18
10.348000,285.1250,5,,-1.96,-2.18
10.358000,-446.0000,5,,-1.96,-2.18
10.368000,275.8750,5,,-1.96,-2.18
10.378000,-465.0000,5,,-1.96,-2.18
10.388000,270.6250,5,,-1.96,-2.18
10.398000,-458.3750,5,,-1.96,-2.18
10.408000,256.8750,5,,-1.96,-2.18
10.418000,-462.7500,5,,-1.96,-2.18
10.428000,259.7500,5,,-1.96,-2.18
10.438000,-472.2500,5,,-1.96,-2.18
10.448000,266.2500,5,,-1.96,-2.18
10.458000,-458.1250,5,,-1.96,-2.18
10.468000,263.6250,5,,-1.96,-2.18
10.478000,-462.3750,5,,-1.96,-2.18
10.488000,262.6250,5,,-1.96,-2.18
10.498000,-469.0000,5,,-1.96,-2.18
10.508000,231.8750,5,,-1.96,-2.18
10.518000,-479.8750,5,,-1.96,-2.18
10.528000,233.7500,5,,-1.96,-2.18
10.538000,-474.3750,5,,-1.96,-2.18
10.548000,230.7500,5,,-1.96,-2.18
10.558000,-471.6250,5,,-1.96,-2.18
10.568000,230.0000,5,,-1.96,-2.18
10.578000,-467.5000,5,,-1.96,-2.18
10.588000,227.7500,5,,-1.96,-2.18
10.598000,-473.0000,5,,-1.96,-2.18
10.608000,233.1250,5,,-1.96,-2.18
10.618000,-499.5000,5,,-1.96,-2.18
10.628000,232.8750,5,,-1.96,-2.18
10.638000,-470.3750,5,,-1.96,-2.18
10.648000,246.5000,5,,-1.96,-2.18
10.658000,-473.0000,5,,-1.96,-2.18
10.668000,244.8750,5,,-1.96,-2.18
10.678000,-426.2500,5,,-1.96,-2.18
10.688000,245.5000,5,,-1.96,-2.18
10.698000,-427.0000,5,,-1.96,-2.18
10.708000,-242.3750,5,,-1.96,-2.18
10.718000,-467.5000,5,,-1.96,-2.18
10.728000,-450.5000,5,,-1.96,-2.18
10.738000,-450.0000,5,,-1.96,-2.18
10.748000,-372.7500,5,,-1.96,-2.18
10.758000,-494.5000,5,,-1.96,-2.18
10.768000,-341.1250,5,,-1.96,-2.18
10.778000,-337.3750,5,,-1.96,-2.18
10.788000,-472.3750,5,,-1.96,-2.18
10.798000,63.3750,5,,-1.96,-2.18
10.808000,-464.2500,5,,-1.96,-2.18
10.818000,-455.0000,5,,-1.96,-2.18
10.828000,164.3750,5,,-1.96,-2.18
10.838000,-196.6250,5,,-1.96,-2.18
10.848000,-293.6250,5,,-1.96,-2.18
10.858000,-17.6250,5,,-1.96,-2.18
10.868000,-291.1250,5,,-1.96,-2.18
10.878000,-22.2500,5,,-1.96,-2.18
10.888000,-283.8750,5,,-1.96,-2.18
10.898000,147.7500,5,,-1.96,-2.18
10.908000,-277.7500,5,,-1.96,-2.18
10.918000,-474.3750,5,,-1.96,-2.18
10.928000,127.2500,5,,-1.96,-2.18
10.938000,226.1250,5,,-1.96,-2.18
10.948000,216.1250,5,,-1.96,-2.18
10.958000,-446.3750,5,,-1.96,-2.18
10.968000,-303.7500,5,,-1.96,-2.18
10.978000,-489.5000,5,,-1.96,-2.18
10.988000,-113.0000,5,,-1.96,-2.18
10.998000,-96.6250,5,,-1.96,-2.18
11.008000,277.8750,5,,-1.96,-2.18
11.018000,-431.8750,5,,-1.96,-2.18
11.028000,2.8750,5,,-1.96,-2.18
11.038000,-456.6250,5,,-1.96,-2.18
11.048000,159.8750,5,,-1.96,-2.18
11.058000,246.7500,5,,-1.96,-2.18
11.068000,252.1250,5,,-1.96,-2.18
11.078000,-455.8750,5,,-1.96,-2.18
11.088000,244.5000,5,,-1.96,-2.18
11.098000,-457.8750,5,,-1.96,-2.18
11.108000,244.0000,5,,-1.96,-2.18
11.118000,-414.6250,5,,-1.96,-2.18
11.128000,254.5000,5,,-1.96,-2.18
11.138000,-418.7500,5,,-1.96,-2.18
11.148000,239.3750,5,,-1.96,-2.18
11.158000,-422.3750,5,,-1.96,-2.18
11.168000,151.5000,5,,-1.96,-2.18
11.178000,-423.3750,5,,-1.96,-2.18
11.188000,150.8750,5,,-1.96,-2.18
11.198000,187.7500,5,,-1.96,-2.18
11.208000,234.8750,5,,-1.96,-2.18
11.218000,524.5000,5,,-1.96,-2.18
11.228000,12.5000,5,,-1.96,-2.18
11.238000,-309.8750,5,,-1.96,-2.18
11.248000,-390.8750,5,,-1.96,-2.18
11.258000,330.5000,5,,-1.96,-2.18
11.268000,595.3750,5,,-1.96,-2.18
11.278000,468.3750,5,,-1.96,-2.18
11.288000,299.0000,5,,-1.96,-2.18
11.298000,149.3750,5,,-1.96,-2.18
11.308000,282.0000,5,,-1.96,-2.18
11.318000,206.3750,5,,-1.96,-2.18
11.328000,423.8750,5,,-1.96,-2.18
11.338000,501.0000,5,,-1.96,-2.18
11.348000,160.7500,5,,-1.96,-2.18
11.358000,1036.1250,5,,-1.96,-2.18
11.368000,1033.6250,5,,-1.96,-2.18
11.378000,1032.6250,5,,-1.96,-2.18
11.388000,-412.5000,5,,-1.96,-2.18
11.398000,-293.5000,5,,-1.96,-2.18
11.408000,-564.1250,5,,-1.96,-2.18
11.418000,-302.0000,5,,-1.96,-2.18
11.428000,-412.2500,5,,-1.96,-2.18
11.438000,-653.0000,5,,-1.96,-2.18
11.448000,425.8750,5,,-1.96,-2.18
11.458000,84.6250,5,,-1.96,-2.18
11.468000,37.7500,5,,-1.96,-2.18
11.478000,-485.2500,5,,-1.96,-2.18
11.488000,238.7500,5,,-1.96,-2.18
11.498000,627.1250,5,,-1.96,-2.18
11.508000,690.5000,5,,-1.96,-2.18
11.518000,638.3750,5,,-1.96,-2.18
11.528000,570.6250,5,,-1.96,-2.18
11.538000,-129.6250,5,,-1.96,-2.18
11.548000,-58.7500,5,,-1.96,-2.18
11.558000,-111.2500,5,,-1.96,-2.18
11.568000,579.7500,5,,-1.96,-2.18
11.578000,539.0000,5,,-1.96,-2.18
11.588000,-11.3750,5,,-1.96,-2.18
11.598000,485.8750,5,,-1.96,-2.18
11.608000,-94.5000,5,,-1.96,-2.18
11.618000,383.1250,5,,-1.96,-2.18
11.628000,-166.7500,5,,-1.96,-2.18
11.638000,458.3750,5,,-1.96,-2.18
11.648000,-97.0000,5,,-1.96,-2.18
11.658000,421.3750,5,,-1.96,-2.18
11.668000,-154.2500,5,,-1.96,-2.18
11.678000,-163.3750,5,,-1.96,-2.18
11.688000,-82.0000,5,,-1.96,-2.18
11.698000,-6.5000,5,,-1.96,-2.18
11.708000,102.1250,5,,-1.96,-2.18
11.718000,-208.8750,5,,-1.96,-2.18
11.728000,26.1250,5,,-1.96,-2.18
11.738000,-82.0000,5,,-1.96,-2.18
11.748000,-163.7500,5,,-1.96,-2.18
11.758000,-327.2500,5,,-1.96,-2.18
11.768000,-47.2500,5,,-1.96,-2.18
11.778000,57.1250,5,,-1.96,-2.18
11.788000,-146.6250,5,,-1.96,-2.18
11.798000,201.8750,5,,-1.96,-2.18
11.808000,-183.1250,5,,-1.96,-2.18
11.818000,70.1250,5,,-1.96,-2.18
11.828000,195.5000,5,,-1.96,-2.18
11.838000,138.5000,5,,-1.96,-2.18
11.848000,303.5000,5,,-1.96,-2.18
11.858000,239.6250,5,,-1.96,-2.18
11.868000,114.2500,5,,-1.96,-2.18
11.878000,-81.3750,5,,-1.96,-2.18
11.888000,1041.5000,5,,-1.96,-2.18
11.898000,422.1250,5,,-1.96,-2.18
11.908000,293.2500,5,,-1.96,-2.18
11.918000,642.0000,5,,-1.96,-2.18
11.928000,-91.8750,5,,-1.96,-2.18
11.938000,-264.2500,5,,-1.96,-2.18
11.948000,-60.8750,5,,-1.96,-2.18
11.958000,-229.7500,5,,-1.96,-2.18
11.968000,857.6250,5,,-1.96,-2.18
11.978000,249.8750,5,,-1.96,-2.18
11.988000,-107.1250,5,,-1.96,-2.18
11.998000,-311.3750,5,,-1.96,-2.18
12.008000,-368.0000,5,,-1.96,-2.18
12.018000,267.0000,5,,-1.96,-2.18
12.028000,-359.0000,5,,-1.96,-2.18
12.038000,1.7500,5,,-1.96,-2.18
12.048000,312.5000,5,,-1.96,-2.18
12.058000,-391.3750,5,,-1.96,-2.18
12.068000,-40.8750,5,,-1.96,-2.18
12.078000,-493.0000,5,,-1.96,-2.18
12.088000,-549.8750,5,,-1.96,-2.18
12.098000,-1304.1250,5,,-1.96,-2.18
12.108000,-689.0000,5,,-1.96,-2.18
12.118000,-993.7500,5,,-1.96,-2.18
12.128000,-1062.8750,5,,-1.96,-2.18
12.138000,-1138.5000,5,,-1.96,-2.18
12.148000,-1208.6250,5,,-1.96,-2.18
12.158000,-1115.5000,5,,-1.96,-2.18
12.168000,-639.2500,5,,-1.96,-2.18
12.178000,-1050.3750,5,,-1.96,-2.18
12.188000,-430.3750,5,,-1.96,-2.18
12.198000,-374.7500,5,,-1.96,-2.18
12.208000,-147.5000,5,,-1.96,-2.18
12.218000,-150.7500,5,,-1.96,-2.18
12.228000,-55.8750,5,,-1.96,-2.18
12.238000,-68.6250,5,,-1.96,-2.18
12.248000,-194.2500,5,,-1.96,-2.18
12.258000,-205.6250,5,,-1.96,-2.18
12.268000,-307.0000,5,,-1.96,-2.18
12.278000,-81.8750,5,,-1.96,-2.18
12.288000,-284.8750,5,,-1.96,-2.18
12.298000,-66.1250,5,,-1.96,-2.18
12.308000,-354.5000,5,,-1.96,-2.18
12.318000,-453.2500,5,,-1.96,-2.18
12.328000,-135.1250,5,,-1.96,-2.18
12.338000,-401.8750,5,,-1.96,-2.18
12.348000,-256.3750,5,,-1.96,-2.18
12.358000,-420.2500,5,,-1.96,-2.18
12.368000,-279.2500,5,,-1.96,-2.18
12.378000,-574.5000,5,,-1.96,-2.18
12.388000,-511.8750,5,,-1.96,-2.18
12.398000,-622.3750,5,,-1.96,-2.18
12.408000,-178.3750,5,,-1.96,-2.18
12.418000,-639.0000,5,,-1.96,-2.18
12.428000,-173.5000,5,,-1.96,-2.18
12.438000,-655.1250,5,,-1.96,-2.18
12.448000,-317.0000,5,,-1.96,-2.18
12.458000,-678.6250,5,,-1.96,-2.18
12.468000,-657.8750,5,,-1.96,-2.18
12.478000,-658.7500,5,,-1.96,-2.18
12.488000,-654.3750,5,,-1.96,-2.18
12.498000,-649.7500,5,,-1.96,-2.18
12.508000,-649.6250,5,,-1.96,-2.18
12.518000,-643.7500,5,,-1.96,-2.18
12.528000,-649.6250,5,,-1.96,-2.18
12.538000,-643.7500,5,,-1.96,-2.18
12.548000,-646.7500,5,,-1.96,-2.18
12.558000,-636.6250,5,,-1.96,-2.18
12.568000,-642.2500,5,,-1.96,-2.18
12.578000,-627.5000,5,,-1.96,-2.18
12.588000,-623.1250,5,,-1.96,-2.18
12.598000,-611.2500,5,,-1.96,-2.18
12.608000,-615.6250,5,,-1.96,-2.18
12.618000,-604.2500,5,,-1.96,-2.18
12.628000,-605.2500,5,,-1.96,-2.18
12.638000,-597.6250,5,,-1.96,-2.18
12.648000,-601.0000,5,,-1.96,-2.18
12.658000,-580.5000,5,,-1.96,-2.18
12.668000,-556.5000,5,,-1.96,-2.18
12.678000,-486.3750,5,,-1.96,-2.18
12.688000,-487.7500,5,,-1.96,-2.18
12.698000,-487.7500,5,,-1.96,-2.18
12.708000,-469.6250,5,,-1.96,-2.18
12.718000,-473.0000,5,,-1.96,-2.18
12.728000,-441.8750,5,,-1.96,-2.18
12.738000,-443.6250,5,,-1.96,-2.18
12.748000,-403.3750,5,,-1.96,-2.18
12.758000,-418.0000,5,,-1.96,-2.18
12.768000,-415.2500,5,,-1.96,-2.18
12.778000,-429.6250,5,,-1.96,-2.18
12.788000,-401.3750,5,,-1.96,-2.18
12.798000,-408.8750,5,,-1.96,-2.18
12.808000,-389.0000,5,,-1.96,-2.18
12.818000,-393.3750,5,,-1.96,-2.18
12.828000,-381.8750,5,,-1.96,-2.18
12.838000,-380.2500,5,,-1.96,-2.18
12.848000,-369.6250,5,,-1.96,-2.18
12.858000,-393.8750,5,,-1.96,-2.18
12.868000,-386.0000,5,,-1.96,-2.18
12.878000,-381.5000,5,,-1.96,-2.18
12.888000,-373.7500,5,,-1.96,-2.18
12.898000,-370.6250,5,,-1.96,-2.18
12.908000,-358.6250,7,140.19,-5.73,11.81
12.918000,-351.2500,7,140.19,-5.73,11.81
12.928000,-335.8750,7,140.19,-5.73,11.81
12.938000,-335.5000,7,140.19,-5.73,11.81
12.948000,-325.5000,7,140.19,-5.73,11.81
12.958000,-328.5000,7,140.19,-5.73,11.81
12.968000,-317.3750,7,140.19,-5.73,11.81
12.978000,-317.6250,7,140.19,-5.73,11.81
12.988000,-309.1250,7,140.19,-5.73,11.81
12.998000,-311.8750,7,140.19,-5.73,11.81
13.008000,-302.3750,7,140.19,-5.73,11.81
13.018000,-308.7500,7,140.19,-5.73,11.81
13.028000,-299.0000,7,140.19,-5.73,11.81
13.038000,-304.8750,7,140.19,-5.73,11.81
13.048000,-288.5000,7,140.19,-5.73,11.81
13.058000,-295.7500,7,140.19,-5.73,11.81
13.068000,-286.5000,7,140.19,-5.73,11.81
13.078000,-286.3750,7,140.19,-5.73,11.81
13.088000,-277.7500,7,140.19,-5.73,11.81
13.098000,-278.3750,7,140.19,-5.73,11.81
13.108000,-269.6250,7,140.19,-5.73,11.81
13.118000,-272.2500,7,140.19,-5.73,11.81
13.128000,-266.1250,7,140.19,-5.73,11.81
13.138000,-268.0000,7,140.19,-5.73,11.81
13.148000,-264.8750,7,140.19,-5.73,11.81
13.158000,-273.0000,7,140.19,-5.73,11.81
13.168000,-276.7500,7,140.19,-5.73,11.81
13.178000,-292.6250,7,140.19,-5.73,11.81
13.188000,-319.7500,7,140.19,-5.73,11.81
13.198000,-355.6250,7,140.19,-5.73,11.81
13.208000,-386.2500,7,140.19,-5.73,11.81
13.218000,-384.3750,7,140.19,-5.73,11.81
13.228000,-403.3750,7,140.19,-5.73,11.81
13.238000,-399.2500,7,140.19,-5.73,11.81
13.248000,-422.2500,7,140.19,-5.73,11.81
13.258000,-416.6250,7,140.19,-5.73,11.81
13.268000,-420.1250,7,140.19,-5.73,11.81
13.278000,-425.0000,7,140.19,-5.73,11.81
13.288000,-431.3750,7,140.19,-5.73,11.81
13.298000,-434.8750,7,140.19,-5.73,11.81
13.308000,-440.5000,7,140.19,-5.73,11.81
13.318000,-434.6250,7,140.19,-5.73,11.81
13.328000,-432.3750,7,140.19,-5.73,11.81
13.338000,-425.1250,7,140.19,-5.73,11.81
13.348000,-420.7500,7,140.19,-5.73,11.81
13.358000,-418.6250,7,140.19,-5.73,11.81
13.368000,-417.2500,7,140.19,-5.73,11.81
13.378000,-417.1250,7,140.19,-5.73,11.81
13.388000,-414.3750,7,140.19,-5.73,11.81
13.398000,-413.1250,7,140.19,-5.73,11.81
13.408000,-411.5000,7,140.19,-5.73,11.81
13.418000,-410.5000,7,140.19,-5.73,11.81
13.428000,-408.7500,7,140.19,-5.73,11.81
13.438000,-398.1250,7,140.19,-5.73,11.81
13.448000,-402.2500,7,140.19,-5.73,11.81
13.458000,-394.1250,7,140.19,-5.73,11.81
13.468000,-394.7500,7,140.19,-5.73,11.81
13.478000,-381.6250,7,140.19,-5.73,11.81
13.488000,-331.6250,7,140.19,-5.73,11.81
13.498000,-360.0000,7,140.19,-5.73,11.81
13.508000,-351.8750,7,140.19,-5.73,11.81
13.518000,-359.3750,7,140.19,-5.73,11.81
13.528000,-336.0000,7,140.19,-5.73,11.81
13.538000,-325.2500,7,140.19,-5.73,11.81
13.548000,-304.1250,7,140.19,-5.73,11.81
13.558000,-281.7500,7,140.19,-5.73,11.81
13.568000,-296.5000,7,140.19,-5.73,11.81
13.578000,-273.3750,7,140.19,-5.73,11.81
13.588000,-283.6250,7,140.19,-5.73,11.81
13.598000,-258.2500,7,140.19,-5.73,11.81
13.608000,-256.5000,7,140.19,-5.73,11.81
13.618000,-249.2500,7,140.19,-5.73,11.81
13.628000,-245.6250,7,140.19,-5.73,11.81
13.638000,-243.0000,7,140.19,-5.73,11.81
13.648000,-238.7500,7,140.19,-5.73,11.81
13.658000,-248.5000,7,140.19,-5.73,11.81
13.668000,-230.1250,7,140.19,-5.73,11.81
13.678000,-239.3750,7,140.19,-5.73,11.81
13.688000,-223.2500,7,140.19,-5.73,11.81
13.698000,-232.0000,7,140.19,-5.73,11.81
13.708000,-241.1250,7,140.19,-5.73,11.81
13.718000,-227.0000,7,140.19,-5.73,11.81
13.728000,-238.7500,7,140.19,-5.73,11.81
13.738000,-239.2500,7,140.19,-5.73,11.81
13.748000,-236.8750,7,140.19,-5.73,11.81
13.758000,-239.3750,7,140.19,-5.73,11.81
13.768000,-234.8750,7,140.19,-5.73,11.81
13.778000,-235.5000,7,140.19,-5.73,11.81
13.788000,-233.3750,7,140.19,-5.73,11.81
13.798000,-231.0000,7,140.19,-5.73,11.81
13.808000,-229.2500,7,140.19,-5.73,11.81
13.818000,-226.0000,7,140.19,-5.73,11.81
13.828000,-223.7500,7,140.19,-5.73,11.81
13.838000,-221.7500,7,140.19,-5.73,11.81
13.848000,-218.7500,7,140.19,-5.73,11.81
13.858000,-218.1250,7,140.19,-5.73,11.81
13.868000,-214.2500,7,140.19,-5.73,11.81
13.878000,-212.8750,7,140.19,-5.73,11.81
13.888000,-209.5000,7,140.19,-5.73,11.81
13.898000,-207.6250,7,140.19,-5.73,11.81
13.908000,-204.0000,7,140.19,-5.73,11.81
13.918000,-200.5000,7,140.19,-5.73,11.81
13.928000,-197.8750,7,140.19,-5.73,11.81
13.938000,-196.6250,7,140.19,-5.73,11.81
13.948000,-193.5000,7,140.19,-5.73,11.81
13.958000,-193.7500,7,140.19,-5.73,11.81
13.968000,-190.5000,7,140.19,-5.73,11.81
13.978000,-190.5000,7,140.19,-5.73,11.81
13.988000,-186.6250,7,140.19,-5.73,11.81
13.998000,-185.3750,7,140.19,-5.73,11.81
14.008000,-184.1250,7,140.19,-5.73,11.81
14.018000,-184.0000,7,140.19,-5.73,11.81
14.028000,-180.6250,7,140.19,-5.73,11.81
14.038000,-180.6250,7,140.19,-5.73,11.81
14.048000,-178.3750,7,140.19,-5.73,11.81
14.058000,-178.2500,7,140.19,-5.73,11.81
14.068000,-175.8750,7,140.19,-5.73,11.81
14.078000,-175.5000,7,140.19,-5.73,11.81
14.088000,-173.5000,7,140.19,-5.73,11.81
14.098000,-174.6250,7,140.19,-5.73,11.81
14.108000,-174.2500,7,140.19,-5.73,11.81
14.118000,-175.0000,7,140.19,-5.73,11.81
14.128000,-174.3750,7,140.19,-5.73,11.81
14.138000,-173.2500,7,140.19,-5.73,11.81
14.148000,-173.3750,7,140.19,-5.73,11.81
14.158000,-174.8750,7,140.19,-5.73,11.81
14.168000,-180.7500,7,140.19,-5.73,11.81
14.178000,-182.2500,7,140.19,-5.73,11.81
14.188000,-182.6250,7,140.19,-5.73,11.81
14.198000,-183.1250,7,140.19,-5.73,11.81
14.208000,-180.1250,7,140.19,-5.73,11.81
14.218000,-174.8750,7,140.19,-5.73,11.81
14.228000,-180.3750,7,140.19,-5.73,11.81
14.238000,-195.0000,7,140.19,-5.73,11.81
14.248000,-200.0000,7,140.19,-5.73,11.81
14.258000,-185.6250,7,140.19,-5.73,11.81
14.268000,-182.0000,7,140.19,-5.73,11.81
14.278000,-185.1250,7,140.19,-5.73,11.81
14.288000,-184.8750,7,140.19,-5.73,11.81
14.298000,-184.8750,7,140.19,-5.73,11.81
14.308000,-182.6250,7,140.19,-5.73,11.81
14.318000,-182.2500,7,140.19,-5.73,11.81
14.328000,-179.0000,7,140.19,-5.73,11.81
14.338000,-178.5000,7,140.19,-5.73,11.81
14.348000,-175.6250,7,140.19,-5.73,11.81
14.358000,-173.3750,7,140.19,-5.73,11.81
14.368000,-172.7500,7,140.19,-5.73,11.81
14.378000,-173.3750,7,140.19,-5.73,11.81
14.388000,-169.2500,7,140.19,-5.73,11.81
14.398000,-170.2500,7,140.19,-5.73,11.81
14.408000,-153.2500,7,140.19,-5.73,11.81
14.418000,-165.3750,7,140.19,-5.73,11.81
14.428000,-135.0000,7,140.19,-5.73,11.81
14.438000,-160.3750,7,140.19,-5.73,11.81
14.448000,-82.1250,7,140.19,-5.73,11.81
14.458000,-159.0000,7,140.19,-5.73,11.81
14.468000,-52.6250,7,140.19,-5.73,11.81
14.478000,-159.2500,7,140.19,-5.73,11.81
14.488000,-6.1250,7,140.19,-5.73,11.81
14.498000,-158.3750,7,140.19,-5.73,11.81
14.508000,32.3750,7,140.19,-5.73,11.81
14.518000,-156.7500,7,140.19,-5.73,11.81
14.528000,78.3750,7,140.19,-5.73,11.81
14.538000,-154.5000,7,140.19,-5.73,11.81
14.548000,126.8750,7,140.19,-5.73,11.81
14.558000,-153.1250,7,140.19,-5.73,11.81
14.568000,168.1250,7,140.19,-5.73,11.81
14.578000,-150.6250,7,140.19,-5.73,11.81
14.588000,213.1250,7,140.19,-5.73,11.81
14.598000,-142.7500,7,140.19,-5.73,11.81
14.608000,248.7500,7,140.19,-5.73,11.81
14.618000,-141.6250,7,140.19,-5.73,11.81
14.628000,52.2500,7,140.19,-5.73,11.81
14.638000,274.8750,7,140.19,-5.73,11.81
14.648000,132.5000,7,140.19,-5.73,11.81
14.658000,-148.5000,7,140.19,-5.73,11.81
14.668000,293.3750,7,140.19,-5.73,11.81
14.678000,484.6250,7,140.19,-5.73,11.81
14.688000,-166.5000,7,140.19,-5.73,11.81
14.698000,-157.1250,7,140.19,-5.73,11.81
14.708000,-175.6250,7,140.19,-5.73,11.81
14.718000,239.7500,7,140.19,-5.73,11.81
14.728000,-169.5000,7,140.19,-5.73,11.81
14.738000,-29.2500,7,140.19,-5.73,11.81
14.748000,-183.7500,7,140.19,-5.73,11.81
14.758000,-160.3750,7,140.19,-5.73,11.81
14.768000,635.1250,7,140.19,-5.73,11.81
14.778000,-172.3750,7,140.19,-5.73,11.81
14.788000,639.3750,7,140.19,-5.73,11.81
14.798000,-168.1250,7,140.19,-5.73,11.81
14.808000,646.6250,7,140.19,-5.73,11.81
14.818000,-176.0000,7,140.19,-5.73,11.81
14.828000,-176.2500,7,140.19,-5.73,11.81
14.838000,634.5000,7,140.19,-5.73,11.81
14.848000,552.7500,7,140.19,-5.73,11.81
14.858000,465.3750,7,140.19,-5.73,11.81
14.868000,596.1250,7,140.19,-5.73,11.81
14.878000,411.0000,7,140.19,-5.73,11.81
14.888000,582.2500,7,140.19,-5.73,11.81
14.898000,-252.8750,7,140.19,-5.73,11.81
14.908000,-250.8750,7,140.19,-5.73,11.81
14.918000,440.0000,7,140.19,-5.73,11.81
14.928000,-313.1250,7,140.19,-5.73,11.81
14.938000,92.8750,7,140.19,-5.73,11.81
14.948000,-314.2500,7,140.19,-5.73,11.81
14.958000,558.0000,7,140.19,-5.73,11.81
14.968000,-312.0000,7,140.19,-5.73,11.81
14.978000,546.7500,7,140.19,-5.73,11.81
14.988000,-315.1250,7,140.19,-5.73,11.81
14.998000,539.8750,7,140.19,-5.73,11.81
15.008000,-320.1250,7,140.19,-5.73,11.81
15.018000,527.6250,7,140.19,-5.73,11.81
15.028000,-332.6250,7,140.19,-5.73,11.81
15.038000,514.2500,7,140.19,-5.73,11.81
15.048000,-314.3750,7,140.19,-5.73,11.81
15.058000,113.6250,7,140.19,-5.73,11.81
15.068000,-401.8750,7,140.19,-5.73,11.81
15.078000,-396.6250,7,140.19,-5.73,11.81
15.088000,-334.8750,7,140.19,-5.73,11.81
15.098000,-323.3750,7,140.19,-5.73,11.81
15.108000,-272.2500,7,140.19,-5.73,11.81
15.118000,-248.5000,7,140.19,-5.73,11.81
15.128000,-234.2500,7,140.19,-5.73,11.81
15.138000,-236.7500,7,140.19,-5.73,11.81
15.148000,-226.1250,7,140.19,-5.73,11.81
15.158000,-222.3750,7,140.19,-5.73,11.81
15.168000,-214.6250,7,140.19,-5.73,11.81
15.178000,-200.5000,7,140.19,-5.73,11.81
15.188000,-166.5000,7,140.19,-5.73,11.81
15.198000,-153.2500,7,140.19,-5.73,11.81
15.208000,-120.0000,7,140.19,-5.73,11.81
15.218000,-110.3750,7,140.19,-5.73,11.81
15.228000,-105.0000,7,140.19,-5.73,11.81
15.238000,-101.8750,7,140.19,-5.73,11.81
15.248000,-101.7500,7,140.19,-5.73,11.81
15.258000,-97.3750,7,140.19,-5.73,11.81
15.268000,-94.1250,7,140.19,-5.73,11.81
15.278000,-92.7500,7,140.19,-5.73,11.81
15.288000,-85.5000,7,140.19,-5.73,11.81
15.298000,-84.5000,7,140.19,-5.73,11.81
15.308000,-81.8750,7,140.19,-5.73,11.81
15.318000,-77.1250,7,140.19,-5.73,11.81
15.328000,-76.1250,7,140.19,-5.73,11.81
15.338000,-59.2500,7,140.19,-5.73,11.81
15.348000,-69.6250,7,140.19,-5.73,11.81
15.358000,-66.8750,7,140.19,-5.73,11.81
15.368000,-62.1250,7,140.19,-5.73,11.81
15.378000,-65.8750,7,140.19,-5.73,11.81
15.388000,-56.6250,7,140.19,-5.73,11.81
15.398000,-69.3750,7,140.19,-5.73,11.81
15.408000,-60.8750,7,140.19,-5.73,11.81
15.418000,-60.7500,7,140.19,-5.73,11.81
15.428000,-55.0000,7,140.19,-5.73,11.81
15.438000,-56.8750,7,140.19,-5.73,11.81
15.448000,-53.3750,7,140.19,-5.73,11.81
15.458000,-48.8750,7,140.19,-5.73,11.81
15.468000,-44.0000,7,140.19,-5.73,11.81
15.478000,-38.8750,7,140.19,-5.73,11.81
15.488000,-30.6250,7,140.19,-5.73,11.81
15.498000,-38.7500,7,140.19,-5.73,11.81
15.508000,-40.6250,7,140.19,-5.73,11.81
15.518000,-34.3750,7,140.19,-5.73,11.81
15.528000,-40.2500,7,140.19,-5.73,11.81
15.538000,-35.5000,7,140.19,-5.73,11.81
15.548000,-36.8750,7,140.19,-5.73,11.81
15.558000,-35.3750,7,140.19,-5.73,11.81
15.568000,-37.6250,7,140.19,-5.73,11.81
15.578000,-36.1250,7,140.19,-5.73,11.81
15.588000,-36.3750,7,140.19,-5.73,11.81
15.598000,-34.6250,7,140.19,-5.73,11.81
15.608000,-32.8750,7,140.19,-5.73,11.81
15.618000,-28.7500,7,140.19,-5.73,11.81
15.628000,-27.8750,7,140.19,-5.73,11.81
15.638000,-20.6250,7,140.19,-5.73,11.81
15.648000,-15.3750,7,140.19,-5.73,11.81
15.658000,-32.0000,7,140.19,-5.73,11.81
15.668000,-21.7500,7,140.19,-5.73,11.81
15.678000,-18.6250,7,140.19,-5.73,11.81
15.688000,-12.1250,7,140.19,-5.73,11.81
15.698000,-5.7500,7,140.19,-5.73,11.81
15.708000,-3.5000,7,140.19,-5.73,11.81
15.718000,-7.1250,7,140.19,-5.73,11.81
15.728000,-3.6250,7,140.19,-5.73,11.81
15.738000,-6.0000,7,140.19,-5.73,11.81
15.748000,-8.2500,7,140.19,-5.73,11.81
15.758000,-6.0000,7,140.19,-5.73,11.81
15.768000,-3.8750,7,140.19,-5.73,11.81
15.778000,-1.5000,7,140.19,-5.73,11.81
15.788000,0.1250,7,140.19,-5.73,11.81
15.798000,-2.5000,7,140.19,-5.73,11.81
15.808000,-1.3750,7,140.19,-5.73,11.81
15.818000,-2.2500,7,140.19,-5.73,11.81
15.828000,-1.2500,7,140.19,-5.73,11.81
15.838000,-2.2500,7,140.19,-5.73,11.81
15.848000,-0.5000,7,140.19,-5.73,11.81
15.858000,0.2500,7,140.19,-5.73,11.81
15.868000,-4.1250,7,140.19,-5.73,11.81
15.878000,2.0000,7,140.19,-5.73,11.81
15.888000,-5.1250,7,140.19,-5.73,11.81
15.898000,1.0000,7,140.19,-5.73,11.81
15.908000,-2.0000,7,140.19,-5.73,11.81
15.918000,-6.0000,7,140.19,-5.73,11.81
15.928000,-4.8750,7,140.19,-5.73,11.81
15.938000,2.5000,7,140.19,-5.73,11.81
15.948000,-5.2500,7,140.19,-5.73,11.81
15.958000,-4.0000,7,140.19,-5.73,11.81
15.968000,-15.1250,7,140.19,-5.73,11.81
15.978000,-4.8750,7,140.19,-5.73,11.81
15.988000,-9.5000,7,140.19,-5.73,11.81
15.998000,141.6250,7,140.19,-5.73,11.81
16.008000,110.2500,7,140.19,-5.73,11.81
16.018000,-27.0000,7,140.19,-5.73,11.81
16.028000,-29.2500,7,140.19,-5.73,11.81
16.038000,-27.0000,7,140.19,-5.73,11.81
16.048000,-25.6250,7,140.19,-5.73,11.81
16.058000,-10.2500,7,140.19,-5.73,11.81
16.068000,-38.8750,7,140.19,-5.73,11.81
16.078000,-27.5000,7,140.19,-5.73,11.81
16.088000,-20.1250,7,140.19,-5.73,11.81
16.098000,-17.8750,7,140.19,-5.73,11.81
16.108000,-19.0000,7,140.19,-5.73,11.81
16.118000,-16.7500,7,140.19,-5.73,11.81
16.128000,-8.3750,7,140.19,-5.73,11.81
16.138000,-4.8750,7,140.19,-5.73,11.81
16.148000,0.1250,7,140.19,-5.73,11.81
16.158000,-8.6250,7,140.19,-5.73,11.81
16.168000,-10.6250,7,140.19,-5.73,11.81
16.178000,-11.8750,7,140.19,-5.73,11.81
16.188000,-10.6250,7,140.19,-5.73,11.81
16.198000,-15.0000,7,140.19,-5.73,11.81
16.208000,-18.7500,7,140.19,-5.73,11.81
16.218000,-17.5000,7,140.19,-5.73,11.81
16.228000,310.1250,7,140.19,-5.73,11.81
16.238000,-27.1250,7,140.19,-5.73,11.81
16.248000,348.2500,7,140.19,-5.73,11.81
16.258000,-41.1250,7,140.19,-5.73,11.81
16.268000,437.7500,7,140.19,-5.73,11.81
16.278000,-37.2500,7,140.19,-5.73,11.81
16.288000,473.3750,7,140.19,-5.73,11.81
16.298000,-41.1250,7,140.19,-5.73,11.81
16.308000,489.7500,7,140.19,-5.73,11.81
16.318000,-49.2500,7,140.19,-5.73,11.81
16.328000,118.3750,7,140.19,-5.73,11.81
16.338000,-77.3750,7,140.19,-5.73,11.81
16.348000,558.0000,7,140.19,-5.73,11.81
16.358000,-81.1250,7,140.19,-5.73,11.81
16.368000,574.3750,7,140.19,-5.73,11.81
16.378000,-77.6250,7,140.19,-5.73,11.81
16.388000,593.7500,7,140.19,-5.73,11.81
16.398000,-82.6250,7,140.19,-5.73,11.81
16.408000,562.1250,7,140.19,-5.73,11.81
16.418000,-10.0000,7,140.19,-5.73,11.81
16.428000,428.3750,7,140.19,-5.73,11.81
16.438000,165.8750,7,140.19,-5.73,11.81
16.448000,249.3750,7,140.19,-5.73,11.81
16.458000,340.6250,7,140.19,-5.73,11.81
16.468000,56.6250,7,140.19,-5.73,11.81
16.478000,501.6250,7,140.19,-5.73,11.81
16.488000,-56.2500,7,140.19,-5.73,11.81
16.498000,613.2500,7,140.19,-5.73,11.81
16.508000,-87.5000,7,140.19,-5.73,11.81
16.518000,611.3750,7,140.19,-5.73,11.81
16.528000,-87.1250,7,140.19,-5.73,11.81
16.538000,605.7500,7,140.19,-5.73,11.81
16.548000,-96.1250,7,140.19,-5.73,11.81
16.558000,644.5000,7,140.19,-5.73,11.81
16.568000,-101.1250,7,140.19,-5.73,11.81
16.578000,630.0000,7,140.19,-5.73,11.81
16.588000,-105.8750,7,140.19,-5.73,11.81
16.598000,625.5000,7,140.19,-5.73,11.81
16.608000,479.0000,7,140.19,-5.73,11.81
16.618000,615.5000,7,140.19,-5.73,11.81
16.628000,557.3750,7,140.19,-5.73,11.81
16.638000,-136.1250,7,140.19,-5.73,11.81
16.648000,585.7500,7,140.19,-5.73,11.81
16.658000,-144.2500,7,140.19,-5.73,11.81
16.668000,579.1250,7,140.19,-5.73,11.81
16.678000,-134.5000,7,140.19,-5.73,11.81
16.688000,558.7500,7,140.19,-5.73,11.81
16.698000,-139.0000,7,140.19,-5.73,11.81
16.708000,558.5000,7,140.19,-5.73,11.81
16.718000,-143.0000,7,140.19,-5.73,11.81
16.728000,557.8750,7,140.19,-5.73,11.81
16.738000,-154.6250,7,140.19,-5.73,11.81
16.748000,554.6250,7,140.19,-5.73,11.81
16.758000,-143.0000,7,140.19,-5.73,11.81
16.768000,547.0000,7,140.19,-5.73,11.81
16.778000,-150.1250,7,140.19,-5.73,11.81
16.788000,543.1250,7,140.19,-5.73,11.81
16.798000,-151.0000,7,140.19,-5.73,11.81
16.808000,543.7500,7,140.19,-5.73,11.81
16.818000,-154.8750,7,140.19,-5.73,11.81
16.828000,514.8750,7,140.19,-5.73,11.81
16.838000,-165.6250,7,140.19,-5.73,11.81
16.848000,517.3750,7,140.19,-5.73,11.81
16.858000,-177.8750,7,140.19,-5.73,11.81
16.868000,520.2500,7,140.19,-5.73,11.81
16.878000,-188.2500,7,140.19,-5.73,11.81
16.888000,513.0000,7,140.19,-5.73,11.81
16.898000,-203.8750,7,140.19,-5.73,11.81
16.908000,454.8750,7,140.19,-5.73,11.81
16.918000,-221.5000,7,140.19,-5.73,11.81
16.928000,441.6250,7,140.19,-5.73,11.81
16.938000,-244.1250,7,140.19,-5.73,11.81
16.948000,436.3750,7,140.19,-5.73,11.81
16.958000,-171.3750,7,140.19,-5.73,11.81
16.968000,410.2500,7,140.19,-5.73,11.81
16.978000,-194.5000,7,140.19,-5.73,11.81
16.988000,400.5000,7,140.19,-5.73,11.81
16.998000,-212.5000,7,140.19,-5.73,11.81
17.008000,240.1250,7,140.19,-5.73,11.81
17.018000,-243.1250,7,140.19,-5.73,11.81
17.028000,232.8750,7,140.19,-5.73,11.81
17.038000,-259.5000,7,140.19,-5.73,11.81
17.048000,232.2500,7,140.19,-5.73,11.81
17.058000,-90.0000,9,140.19,-5.52,8.31
17.068000,221.2500,9,140.19,-5.52,8.31
17.078000,-116.5000,9,140.19,-5.52,8.31
17.088000,199.2500,9,140.19,-5.52,8.31
17.098000,-247.8750,9,140.19,-5.52,8.31
17.108000,174.3750,9,140.19,-5.52,8.31
17.118000,-236.3750,9,140.19,-5.52,8.31
17.128000,-37.5000,9,140.19,-5.52,8.31
17.138000,-276.2500,9,140.19,-5.52,8.31
17.148000,-67.1250,9,140.19,-5.52,8.31
17.158000,-114.1250,9,140.19,-5.52,8.31
17.168000,-73.1250,9,140.19,-5.52,8.31
17.178000,-116.5000,9,140.19,-5.52,8.31
17.188000,-73.5000,9,140.19,-5.52,8.31
17.198000,-115.0000,9,140.19,-5.52,8.31
17.208000,-57.0000,9,140.19,-5.52,8.31
17.218000,-116.7500,9,140.19,-5.52,8.31
17.228000,-263.3750,9,140.19,-5.52,8.31
17.238000,-112.1250,9,140.19,-5.52,8.31
17.248000,-252.1250,9,140.19,-5.52,8.31
17.258000,-91.3750,9,140.19,-5.52,8.31
17.268000,-222.6250,9,140.19,-5.52,8.31
17.278000,134.6250,9,140.19,-5.52,8.31
17.288000,-216.5000,9,140.19,-5.52,8.31
17.298000,126.1250,9,140.19,-5.52,8.31
17.308000,-218.2500,9,140.19,-5.52,8.31
17.318000,117.7500,9,140.19,-5.52,8.31
17.328000,-378.7500,9,140.19,-5.52,8.31
17.338000,124.7500,9,140.19,-5.52,8.31
17.348000,-367.5000,9,140.19,-5.52,8.31
17.358000,108.1250,9,140.19,-5.52,8.31
17.368000,-374.3750,9,140.19,-5.52,8.31
17.378000,242.3750,9,140.19,-5.52,8.31
17.388000,-378.8750,9,140.19,-5.52,8.31
17.398000,242.3750,9,140.19,-5.52,8.31
17.408000,-376.3750,9,140.19,-5.52,8.31
17.418000,225.6250,9,140.19,-5.52,8.31
17.428000,-482.2500,9,140.19,-5.52,8.31
17.438000,198.7500,9,140.19,-5.52,8.31
17.448000,-502.7500,9,140.19,-5.52,8.31
17.458000,175.3750,9,140.19,-5.52,8.31
17.468000,-507.5000,9,140.19,-5.52,8.31
17.478000,140.8750,9,140.19,-5.52,8.31
17.488000,-516.0000,9,140.19,-5.52,8.31
17.498000,224.5000,9,140.19,-5.52,8.31
17.508000,-522.0000,9,140.19,-5.52,8.31
17.518000,190.3750,9,140.19,-5.52,8.31
17.528000,-527.8750,9,140.19,-5.52,8.31
17.538000,176.3750,9,140.19,-5.52,8.31
17.548000,-530.3750,9,140.19,-5.52,8.31
17.558000,173.7500,9,140.19,-5.52,8.31
17.568000,-540.5000,9,140.19,-5.52,8.31
17.578000,172.0000,9,140.19,-5.52,8.31
17.588000,-535.8750,9,140.19,-5.52,8.31
17.598000,192.0000,9,140.19,-5.52,8.31
17.608000,-535.5000,9,140.19,-5.52,8.31
17.618000,188.3750,9,140.19,-5.52,8.31
17.628000,-536.3750,9,140.19,-5.52,8.31
17.638000,183.8750,9,140.19,-5.52,8.31
17.648000,-540.1250,9,140.19,-5.52,8.31
17.658000,193.7500,9,140.19,-5.52,8.31
17.668000,-526.3750,9,140.19,-5.52,8.31
17.678000,208.6250,9,140.19,-5.52,8.31
17.688000,-539.1250,9,140.19,-5.52,8.31
17.698000,202.7500,9,140.19,-5.52,8.31
17.708000,-527.3750,9,140.19,-5.52,8.31
17.718000,211.1250,9,140.19,-5.52,8.31
17.728000,-522.2500,9,140.19,-5.52,8.31
17.738000,223.1250,9,140.19,-5.52,8.31
17.748000,-534.2500,9,140.19,-5.52,8.31
17.758000,229.1250,9,140.19,-5.52,8.31
17.768000,-535.6250,9,140.19,-5.52,8.31
17.778000,238.8750,9,140.19,-5.52,8.31
17.788000,-546.6250,9,140.19,-5.52,8.31
17.798000,223.2500,9,140.19,-5.52,8.31
17.808000,-538.8750,9,140.19,-5.52,8.31
17.818000,229.8750,9,140.19,-5.52,8.31
17.828000,-544.3750,9,140.19,-5.52,8.31
17.838000,218.7500,9,140.19,-5.52,8.31
17.848000,-537.1250,9,140.19,-5.52,8.31
17.858000,228.6250,9,140.19,-5.52,8.31
17.868000,-524.7500,9,140.19,-5.52,8.31
17.878000,230.6250,9,140.19,-5.52,8.31
17.888000,-531.1250,9,140.19,-5.52,8.31
17.898000,239.8750,9,140.19,-5.52,8.31
17.908000,-538.0000,9,140.19,-5.52,8.31
17.918000,259.1250,9,140.19,-5.52,8.31
17.928000,-528.0000,9,140.19,-5.52,8.31
17.938000,259.3750,9,140.19,-5.52,8.31
17.948000,-515.0000,9,140.19,-5.52,8.31
17.958000,250.8750,9,140.19,-5.52,8.31
17.968000,-540.1250,9,140.19,-5.52,8.31
17.978000,252.7500,9,140.19,-5.52,8.31
17.988000,-532.1250,9,140.19,-5.52,8.31
17.998000,254.1250,9,140.19,-5.52,8.31
18.008000,-539.8750,9,140.19,-5.52,8.31
18.018000,188.7500,9,140.19,-5.52,8.31
18.028000,-542.1250,9,140.19,-5.52,8.31
18.038000,185.1250,9,140.19,-5.52,8.31
18.048000,-526.1250,9,140.19,-5.52,8.31
18.058000,190.0000,9,140.19,-5.52,8.31
18.068000,-447.6250,9,140.19,-5.52,8.31
18.078000,188.6250,9,140.19,-5.52,8.31
18.088000,-435.0000,9,140.19,-5.52,8.31
18.098000,208.1250,9,140.19,-5.52,8.31
18.108000,-439.3750,9,140.19,-5.52,8.31
18.118000,17.5000,9,140.19,-5.52,8.31
18.128000,-442.7500,9,140.19,-5.52,8.31
18.138000,42.2500,9,140.19,-5.52,8.31
18.148000,-449.6250,9,140.19,-5.52,8.31
18.158000,48.6250,9,140.19,-5.52,8.31
18.168000,-273.8750,9,140.19,-5.52,8.31
18.178000,59.3750,9,140.19,-5.52,8.31
18.188000,-266.0000,9,140.19,-5.52,8.31
18.198000,64.0000,9,140.19,-5.52,8.31
18.208000,-255.5000,9,140.19,-5.52,8.31
18.218000,-133.5000,9,140.19,-5.52,8.31
18.228000,-261.0000,9,140.19,-5.52,8.31
18.238000,-119.2500,9,140.19,-5.52,8.31
18.248000,-258.5000,9,140.19,-5.52,8.31
18.258000,-114.1250,9,140.19,-5.52,8.31
18.268000,-44.3750,9,140.19,-5.52,8.31
18.278000,-95.5000,9,140.19,-5.52,8.31
18.288000,-38.6250,9,140.19,-5.52,8.31
18.298000,-81.8750,9,140.19,-5.52,8.31
18.308000,-46.1250,9,140.19,-5.52,8.31
18.318000,-297.1250,9,140.19,-5.52,8.31
18.328000,-54.6250,9,140.19,-5.52,8.31
18.338000,-287.6250,9,140.19,-5.52,8.31
18.348000,-58.1250,9,140.19,-5.52,8.31
18.358000,-274.6250,9,140.19,-5.52,8.31
18.368000,-62.8750,9,140.19,-5.52,8.31
18.378000,-272.5000,9,140.19,-5.52,8.31
18.388000,144.3750,9,140.19,-5.52,8.31
18.398000,-259.2500,9,140.19,-5.52,8.31
18.408000,145.8750,9,140.19,-5.52,8.31
18.418000,-247.5000,9,140.19,-5.52,8.31
18.428000,141.0000,9,140.19,-5.52,8.31
18.438000,-411.1250,9,140.19,-5.52,8.31
18.448000,140.2500,9,140.19,-5.52,8.31
18.458000,-402.5000,9,140.19,-5.52,8.31
18.468000,145.6250,9,140.19,-5.52,8.31
18.478000,-390.8750,9,140.19,-5.52,8.31
18.488000,280.2500,9,140.19,-5.52,8.31
18.498000,-384.0000,9,140.19,-5.52,8.31
18.508000,268.2500,9,140.19,-5.52,8.31
18.518000,-380.6250,9,140.19,-5.52,8.31
18.528000,266.5000,9,140.19,-5.52,8.31
18.538000,-465.1250,9,140.19,-5.52,8.31
18.548000,268.6250,9,140.19,-5.52,8.31
18.558000,-464.6250,9,140.19,-5.52,8.31
18.568000,266.0000,9,140.19,-5.52,8.31
18.578000,-462.7500,9,140.19,-5.52,8.31
18.588000,-451.0000,9,140.19,-5.52,8.31
18.598000,-346.6250,9,140.19,-5.52,8.31
18.608000,-455.7500,9,140.19,-5.52,8.31
18.618000,-447.2500,9,140.19,-5.52,8.31
18.628000,367.1250,9,140.19,-5.52,8.31
18.638000,373.6250,9,140.19,-5.52,8.31
18.648000,-164.2500,9,140.19,-5.52,8.31
18.658000,-475.2500,9,140.19,-5.52,8.31
18.668000,370.3750,9,140.19,-5.52,8.31
18.678000,50.2500,9,140.19,-5.52,8.31
18.688000,-463.0000,9,140.19,-5.52,8.31
18.698000,340.7500,9,140.19,-5.52,8.31
18.708000,342.6250,9,140.19,-5.52,8.31
18.718000,194.5000,9,140.19,-5.52,8.31
18.728000,364.0000,9,140.19,-5.52,8.31
18.738000,-31.5000,9,140.19,-5.52,8.31
18.748000,204.2500,9,140.19,-5.52,8.31
18.758000,364.8750,9,140.19,-5.52,8.31
18.768000,-484.1250,9,140.19,-5.52,8.31
18.778000,361.7500,9,140.19,-5.52,8.31
18.788000,-488.0000,9,140.19,-5.52,8.31
18.798000,362.2500,9,140.19,-5.52,8.31
18.808000,-491.3750,9,140.19,-5.52,8.31
18.818000,362.7500,9,140.19,-5.52,8.31
18.828000,-401.5000,9,140.19,-5.52,8.31
18.838000,383.7500,9,140.19,-5.52,8.31
18.848000,388.8750,9,140.19,-5.52,8.31
18.858000,366.2500,9,140.19,-5.52,8.31
18.868000,229.1250,9,140.19,-5.52,8.31
18.878000,-278.2500,9,140.19,-5.52,8.31
18.888000,-599.5000,9,140.19,-5.52,8.31
18.898000,-610.1250,9,140.19,-5.52,8.31
18.908000,-602.5000,9,140.19,-5.52,8.31
18.918000,-42.5000,9,140.19,-5.52,8.31
18.928000,-611.8750,9,140.19,-5.52,8.31
18.938000,-425.7500,9,140.19,-5.52,8.31
18.948000,-272.2500,9,140.19,-5.52,8.31
18.958000,-153.2500,9,140.19,-5.52,8.31
18.968000,-518.2500,9,140.19,-5.52,8.31
18.978000,76.5000,9,140.19,-5.52,8.31
18.988000,-475.2500,9,140.19,-5.52,8.31
18.998000,85.5000,9,140.19,-5.52,8.31
19.008000,-456.3750,9,140.19,-5.52,8.31
19.018000,85.2500,9,140.19,-5.52,8.31
19.028000,-564.3750,9,140.19,-5.52,8.31
19.038000,101.3750,9,140.19,-5.52,8.31
19.048000,-555.6250,9,140.19,-5.52,8.31
19.058000,261.8750,9,140.19,-5.52,8.31
19.068000,356.1250,9,140.19,-5.52,8.31
19.078000,-31.6250,9,140.19,-5.52,8.31
19.088000,365.2500,9,140.19,-5.52,8.31
19.098000,414.7500,9,140.19,-5.52,8.31
19.108000,384.2500,9,140.19,-5.52,8.31
19.118000,105.6250,9,140.19,-5.52,8.31
19.128000,280.5000,9,140.19,-5.52,8.31
19.138000,-180.0000,9,140.19,-5.52,8.31
19.148000,23.7500,9,140.19,-5.52,8.31
19.158000,416.2500,9,140.19,-5.52,8.31
19.168000,409.0000,9,140.19,-5.52,8.31
19.178000,-3.0000,9,140.19,-5.52,8.31
19.188000,-34.0000,9,140.19,-5.52,8.31
19.198000,-26.6250,9,140.19,-5.52,8.31
19.208000,-546.8750,9,140.19,-5.52,8.31
19.218000,-279.5000,9,140.19,-5.52,8.31
19.228000,-461.0000,9,140.19,-5.52,8.31
19.238000,-550.8750,9,140.19,-5.52,8.31
19.248000,-83.1250,9,140.19,-5.52,8.31
19.258000,421.3750,9,140.19,-5.52,8.31
19.268000,442.3750,9,140.19,-5.52,8.31
19.278000,-544.6250,9,140.19,-5.52,8.31
19.288000,438.1250,9,140.19,-5.52,8.31
19.298000,-545.6250,9,140.19,-5.52,8.31
19.308000,310.1250,9,140.19,-5.52,8.31
19.318000,-552.5000,9,140.19,-5.52,8.31
19.328000,317.1250,9,140.19,-5.52,8.31
19.338000,-560.2500,9,140.19,-5.52,8.31
19.348000,-402.5000,9,140.19,-5.52,8.31
19.358000,425.2500,9,140.19,-5.52,8.31
19.368000,277.2500,9,140.19,-5.52,8.31
19.378000,-435.5000,9,140.19,-5.52,8.31
19.388000,-576.7500,9,140.19,-5.52,8.31
19.398000,421.2500,9,140.19,-5.52,8.31
19.408000,-572.8750,9,140.19,-5.52,8.31
19.418000,-537.0000,9,140.19,-5.52,8.31
19.428000,-584.0000,9,140.19,-5.52,8.31
19.438000,-621.5000,9,140.19,-5.52,8.31
19.448000,-123.8750,9,140.19,-5.52,8.31
19.458000,204.3750,9,140.19,-5.52,8.31
19.468000,-343.3750,9,140.19,-5.52,8.31
19.478000,-47.7500,9,140.19,-5.52,8.31
19.488000,-521.1250,9,140.19,-5.52,8.31
19.498000,-610.7500,9,140.19,-5.52,8.31
19.508000,342.7500,9,140.19,-5.52,8.31
19.518000,-621.0000,9,140.19,-5.52,8.31
19.528000,347.8750,9,140.19,-5.52,8.31
19.538000,328.6250,9,140.19,-5.52,8.31
19.548000,353.6250,9,140.19,-5.52,8.31
19.558000,-600.3750,9,140.19,-5.52,8.31
19.568000,-374.1250,9,140.19,-5.52,8.31
19.578000,-595.6250,9,140.19,-5.52,8.31
19.588000,-568.2500,9,140.19,-5.52,8.31
19.598000,-401.3750,9,140.19,-5.52,8.31
19.608000,-8.7500,9,140.19,-5.52,8.31
19.618000,-391.2500,9,140.19,-5.52,8.31
19.628000,305.6250,9,140.19,-5.52,8.31
19.638000,-562.2500,9,140.19,-5.52,8.31
19.648000,-561.5000,9,140.19,-5.52,8.31
19.658000,-479.3750,9,140.19,-5.52,8.31
19.668000,-517.0000,9,140.19,-5.52,8.31
19.678000,-529.1250,9,140.19,-5.52,8.31
19.688000,-542.7500,9,140.19,-5.52,8.31
19.698000,-520.3750,9,140.19,-5.52,8.31
19.708000,-367.1250,9,140.19,-5.52,8.31
19.718000,-431.3750,9,140.19,-5.52,8.31
19.728000,140.7500,9,140.19,-5.52,8.31
19.738000,-423.0000,9,140.19,-5.52,8.31
19.748000,-400.8750,9,140.19,-5.52,8.31
19.758000,-523.6250,9,140.19,-5.52,8.31
19.768000,-206.7500,9,140.19,-5.52,8.31
19.778000,476.1250,9,140.19,-5.52,8.31
19.788000,-216.6250,9,140.19,-5.52,8.31
19.798000,479.2500,9,140.19,-5.52,8.31
19.808000,-461.5000,9,140.19,-5.52,8.31
19.818000,34.7500,9,140.19,-5.52,8.31
19.828000,4.1250,9,140.19,-5.52,8.31
19.838000,23.0000,9,140.19,-5.52,8.31
19.848000,282.7500,9,140.19,-5.52,8.31
19.858000,-436.7500,9,140.19,-5.52,8.31
19.868000,-522.1250,9,140.19,-5.52,8.31
19.878000,-337.5000,9,140.19,-5.52,8.31
19.888000,-395.7500,9,140.19,-5.52,8.31
19.898000,411.2500,9,140.19,-5.52,8.31
19.908000,-606.8750,9,140.19,-5.52,8.31
19.918000,-596.5000,9,140.19,-5.52,8.31
19.928000,-625.1250,9,140.19,-5.52,8.31
19.938000,457.1250,9,140.19,-5.52,8.31
19.948000,684.1250,9,140.19,-5.52,8.31
19.958000,-231.2500,9,140.19,-5.52,8.31
19.968000,660.5000,9,140.19,-5.52,8.31
19.978000,-321.1250,9,140.19,-5.52,8.31
19.988000,401.6250,9,140.19,-5.52,8.31
19.998000,412.3750,9,140.19,-5.52,8.31
20.008000,-512.6250,9,140.19,-5.52,8.31
20.018000,519.6250,9,140.19,-5.52,8.31
20.028000,216.8750,9,140.19,-5.52,8.31
20.038000,-37.1250,9,140.19,-5.52,8.31
20.048000,-594.3750,9,140.19,-5.52,8.31
20.058000,-590.8750,9,140.19,-5.52,8.31
20.068000,-606.1250,9,140.19,-5.52,8.31
20.078000,-370.3750,9,140.19,-5.52,8.31
20.088000,321.1250,9,140.19,-5.52,8.31
20.098000,-441.2500,9,140.19,-5.52,8.31
20.108000,306.0000,9,140.19,-5.52,8.31
20.118000,-574.2500,9,140.19,-5.52,8.31
20.128000,-636.3750,9,140.19,-5.52,8.31
20.138000,414.2500,9,140.19,-5.52,8.31
20.148000,-636.3750,9,140.19,-5.52,8.31
20.158000,427.3750,9,140.19,-5.52,8.31
20.168000,-631.7500,9,140.19,-5.52,8.31
20.178000,426.0000,9,140.19,-5.52,8.31
20.188000,-632.8750,9,140.19,-5.52,8.31
20.198000,-188.2500,9,140.19,-5.52,8.31
20.208000,-416.6250,9,140.19,-5.52,8.31
20.218000,234.1250,9,140.19,-5.52,8.31
20.228000,-560.7500,9,140.19,-5.52,8.31
20.238000,358.5000,9,140.19,-5.52,8.31
20.248000,-567.6250,9,140.19,-5.52,8.31
20.258000,355.1250,9,140.19,-5.52,8.31
20.268000,-640.3750,9,140.19,-5.52,8.31
20.278000,128.3750,9,140.19,-5.52,8.31
20.288000,-284.1250,9,140.19,-5.52,8.31
20.298000,-139.6250,9,140.19,-5.52,8.31
20.308000,-8.0000,9,140.19,-5.52,8.31
20.318000,-389.2500,9,140.19,-5.52,8.31
20.328000,203.5000,9,140.19,-5.52,8.31
20.338000,-560.8750,9,140.19,-5.52,8.31
20.348000,342.5000,9,140.19,-5.52,8.31
20.358000,-634.8750,9,140.19,-5.52,8.31
20.368000,391.1250,9,140.19,-5.52,8.31
20.378000,-649.5000,9,140.19,-5.52,8.31
20.388000,412.3750,9,140.19,-5.52,8.31
20.398000,-636.1250,9,140.19,-5.52,8.31
20.408000,410.8750,9,140.19,-5.52,8.31
20.418000,-639.5000,9,140.19,-5.52,8.31
20.428000,404.8750,9,140.19,-5.52,8.31
20.438000,-638.1250,9,140.19,-5.52,8.31
20.448000,405.6250,9,140.19,-5.52,8.31
20.458000,-639.7500,9,140.19,-5.52,8.31
20.468000,404.7500,9,140.19,-5.52,8.31
20.478000,-367.8750,9,140.19,-5.52,8.31
20.488000,-213.5000,9,140.19,-5.52,8.31
20.498000,-681.7500,9,140.19,-5.52,8.31
20.508000,214.1250,9,140.19,-5.52,8.31
20.518000,-467.1250,9,140.19,-5.52,8.31
20.528000,627.3750,9,140.19,-5.52,8.31
20.538000,137.7500,9,140.19,-5.52,8.31
20.548000,610.5000,9,140.19,-5.52,8.31
20.558000,-255.0000,9,140.19,-5.52,8.31
20.568000,595.2500,9,140.19,-5.52,8.31
20.578000,-402.3750,9,140.19,-5.52,8.31
20.588000,589.1250,9,140.19,-5.52,8.31
20.598000,-238.6250,9,140.19,-5.52,8.31
20.608000,580.5000,9,140.19,-5.52,8.31
20.618000,-48.0000,9,140.19,-5.52,8.31
20.628000,566.7500,9,140.19,-5.52,8.31
20.638000,-242.3750,9,140.19,-5.52,8.31
20.648000,554.5000,9,140.19,-5.52,8.31
20.658000,-339.8750,9,140.19,-5.52,8.31
20.668000,543.2500,9,140.19,-5.52,8.31
20.678000,-411.5000,9,140.19,-5.52,8.31
20.688000,522.3750,9,140.19,-5.52,8.31
20.698000,-451.7500,9,140.19,-5.52,8.31
20.708000,511.2500,9,140.19,-5.52,8.31
20.718000,-478.5000,9,140.19,-5.52,8.31
20.728000,491.2500,11,140.19,-5.37,6.62
20.738000,-518.1250,11,140.19,-5.37,6.62
20.748000,470.7500,11,140.19,-5.37,6.62
20.758000,-548.3750,11,140.19,-5.37,6.62
20.768000,449.1250,11,140.19,-5.37,6.62
20.778000,-573.0000,11,140.19,-5.37,6.62
20.788000,442.3750,11,140.19,-5.37,6.62
20.798000,-591.6250,11,140.19,-5.37,6.62
20.808000,436.0000,11,140.19,-5.37,6.62
20.818000,-610.0000,11,140.19,-5.37,6.62
20.828000,424.1250,11,140.19,-5.37,6.62
20.838000,-617.6250,11,140.19,-5.37,6.62
20.848000,418.1250,11,140.19,-5.37,6.62
20.858000,-641.0000,11,140.19,-5.37,6.62
20.868000,415.5000,11,140.19,-5.37,6.62
20.878000,-647.3750,11,140.19,-5.37,6.62
20.888000,411.1250,11,140.19,-5.37,6.62
20.898000,-653.1250,11,140.19,-5.37,6.62
20.908000,377.5000,11,140.19,-5.37,6.62
20.918000,-660.1250,11,140.19,-5.37,6.62
20.928000,376.8750,11,140.19,-5.37,6.62
20.938000,-666.8750,11,140.19,-5.37,6.62
20.948000,370.7500,11,140.19,-5.37,6.62
20.958000,-556.7500,11,140.19,-5.37,6.62
20.968000,372.0000,11,140.19,-5.37,6.62
20.978000,-569.0000,11,140.19,-5.37,6.62
20.988000,368.1250,11,140.19,-5.37,6.62
20.998000,-578.7500,11,140.19,-5.37,6.62
21.008000,186.6250,11,140.19,-5.37,6.62
21.018000,-594.2500,11,140.19,-5.37,6.62
21.028000,191.6250,11,140.19,-5.37,6.62
21.038000,-599.6250,11,140.19,-5.37,6.62
21.048000,195.1250,11,140.19,-5.37,6.62
21.058000,-608.7500,11,140.19,-5.37,6.62
21.068000,201.5000,11,140.19,-5.37,6.62
21.078000,-393.2500,11,140.19,-5.37,6.62
21.088000,207.8750,11,140.19,-5.37,6.62
21.098000,-398.1250,11,140.19,-5.37,6.62
21.108000,222.8750,11,140.19,-5.37,6.62
21.118000,-409.2500,11,140.19,-5.37,6.62
21.128000,-35.2500,11,140.19,-5.37,6.62
21.138000,-424.0000,11,140.19,-5.37,6.62
21.148000,-24.3750,11,140.19,-5.37,6.62
21.158000,-432.1250,11,140.19,-5.37,6.62
21.168000,-21.0000,11,140.19,-5.37,6.62
21.178000,-184.5000,11,140.19,-5.37,6.62
21.188000,-14.7500,11,140.19,-5.37,6.62
21.198000,-197.3750,11,140.19,-5.37,6.62
21.208000,-5.7500,11,140.19,-5.37,6.62
21.218000,-207.8750,11,140.19,-5.37,6.62
21.228000,-278.6250,11,140.19,-5.37,6.62
21.238000,-215.6250,11,140.19,-5.37,6.62
21.248000,-271.5000,11,140.19,-5.37,6.62
21.258000,-228.5000,11,140.19,-5.37,6.62
21.268000,-261.8750,11,140.19,-5.37,6.62
21.278000,39.5000,11,140.19,-5.37,6.62
21.288000,-246.8750,11,140.19,-5.37,6.62
21.298000,31.0000,11,140.19,-5.37,6.62
21.308000,-241.0000,11,140.19,-5.37,6.62
21.318000,22.6250,11,140.19,-5.37,6.62
21.328000,-226.6250,11,140.19,-5.37,6.62
21.338000,12.1250,11,140.19,-5.37,6.62
21.348000,-470.2500,11,140.19,-5.37,6.62
21.358000,9.3750,11,140.19,-5.37,6.62
21.368000,-460.1250,11,140.19,-5.37,6.62
21.378000,1.1250,11,140.19,-5.37,6.62
21.388000,-443.7500,11,140.19,-5.37,6.62
21.398000,191.1250,11,140.19,-5.37,6.62
21.408000,-434.8750,11,140.19,-5.37,6.62
21.418000,182.3750,11,140.19,-5.37,6.62
21.428000,-436.3750,11,140.19,-5.37,6.62
21.438000,178.6250,11,140.19,-5.37,6.62
21.448000,-595.0000,11,140.19,-5.37,6.62
21.458000,168.0000,11,140.19,-5.37,6.62
21.468000,-593.5000,11,140.19,-5.37,6.62
21.478000,165.3750,11,140.19,-5.37,6.62
21.488000,-587.1250,11,140.19,-5.37,6.62
21.498000,296.7500,11,140.19,-5.37,6.62
21.508000,-579.8750,11,140.19,-5.37,6.62
21.518000,290.6250,11,140.19,-5.37,6.62
21.528000,-574.1250,11,140.19,-5.37,6.62
21.538000,299.8750,11,140.19,-5.37,6.62
21.548000,-655.1250,11,140.19,-5.37,6.62
21.558000,293.8750,11,140.19,-5.37,6.62
21.568000,-646.2500,11,140.19,-5.37,6.62
21.578000,288.0000,11,140.19,-5.37,6.62
21.588000,-649.2500,11,140.19,-5.37,6.62
21.598000,340.0000,11,140.19,-5.37,6.62
21.608000,-645.0000,11,140.19,-5.37,6.62
21.618000,348.6250,11,140.19,-5.37,6.62
21.628000,-647.0000,11,140.19,-5.37,6.62
21.638000,344.6250,11,140.19,-5.37,6.62
21.648000,-669.0000,11,140.19,-5.37,6.62
21.658000,342.5000,11,140.19,-5.37,6.62
21.668000,-653.7500,11,140.19,-5.37,6.62
21.678000,347.2500,11,140.19,-5.37,6.62
21.688000,-653.0000,11,140.19,-5.37,6.62
21.698000,371.0000,11,140.19,-5.37,6.62
21.708000,-652.1250,11,140.19,-5.37,6.62
21.718000,373.6250,11,140.19,-5.37,6.62
21.728000,-653.0000,11,140.19,-5.37,6.62
21.738000,364.8750,11,140.19,-5.37,6.62
21.748000,-654.3750,11,140.19,-5.37,6.62
21.758000,365.3750,11,140.19,-5.37,6.62
21.768000,-659.1250,11,140.19,-5.37,6.62
21.778000,375.7500,11,140.19,-5.37,6.62
21.788000,-652.3750,11,140.19,-5.37,6.62
21.798000,371.8750,11,140.19,-5.37,6.62
21.808000,-654.0000,11,140.19,-5.37,6.62
21.818000,379.8750,11,140.19,-5.37,6.62
21.828000,-648.5000,11,140.19,-5.37,6.62
21.838000,380.3750,11,140.19,-5.37,6.62
21.848000,-653.8750,11,140.19,-5.37,6.62
21.858000,374.8750,11,140.19,-5.37,6.62
21.868000,-651.5000,11,140.19,-5.37,6.62
21.878000,375.3750,11,140.19,-5.37,6.62
21.888000,-659.6250,11,140.19,-5.37,6.62
21.898000,375.2500,11,140.19,-5.37,6.62
21.908000,-656.7500,11,140.19,-5.37,6.62
21.918000,396.7500,11,140.19,-5.37,6.62
21.928000,-653.6250,11,140.19,-5.37,6.62
21.938000,400.1250,11,140.19,-5.37,6.62
21.948000,-652.2500,11,140.19,-5.37,6.62
21.958000,403.2500,11,140.19,-5.37,6.62
21.968000,-646.7500,11,140.19,-5.37,6.62
21.978000,410.3750,11,140.19,-5.37,6.62
21.988000,-648.3750,11,140.19,-5.37,6.62
21.998000,414.1250,11,140.19,-5.37,6.62
22.008000,-660.3750,11,140.19,-5.37,6.62
22.018000,399.5000,11,140.19,-5.37,6.62
22.028000,-652.0000,11,140.19,-5.37,6.62
22.038000,351.6250,11,140.19,-5.37,6.62
22.048000,-650.2500,11,140.19,-5.37,6.62
22.058000,359.5000,11,140.19,-5.37,6.62
22.068000,-655.5000,11,140.19,-5.37,6.62
22.078000,360.5000,11,140.19,-5.37,6.62
22.088000,-550.7500,11,140.19,-5.37,6.62
22.098000,367.2500,11,140.19,-5.37,6.62
22.108000,-553.6250,11,140.19,-5.37,6.62
22.118000,371.3750,11,140.19,-5.37,6.62
22.128000,-560.2500,11,140.19,-5.37,6.62
22.138000,168.8750,11,140.19,-5.37,6.62
22.148000,-562.8750,11,140.19,-5.37,6.62
22.158000,175.1250,11,140.19,-5.37,6.62
22.168000,-562.6250,11,140.19,-5.37,6.62
22.178000,188.6250,11,140.19,-5.37,6.62
22.188000,-343.0000,11,140.19,-5.37,6.62
22.198000,209.3750,11,140.19,-5.37,6.62
22.208000,-349.6250,11,140.19,-5.37,6.62
22.218000,212.0000,11,140.19,-5.37,6.62
22.228000,-360.6250,11,140.19,-5.37,6.62
22.238000,-37.2500,11,140.19,-5.37,6.62
22.248000,-372.8750,11,140.19,-5.37,6.62
22.258000,-24.2500,11,140.19,-5.37,6.62
22.268000,-376.3750,11,140.19,-5.37,6.62
22.278000,-18.1250,11,140.19,-5.37,6.62
22.288000,-377.6250,11,140.19,-5.37,6.62
22.298000,-2.6250,11,140.19,-5.37,6.62
22.308000,-117.3750,11,140.19,-5.37,6.62
22.318000,5.6250,11,140.19,-5.37,6.62
22.328000,-133.8750,11,140.19,-5.37,6.62
22.338000,12.1250,11,140.19,-5.37,6.62
22.348000,-139.0000,11,140.19,-5.37,6.62
22.358000,-269.1250,11,140.19,-5.37,6.62
22.368000,-145.0000,11,140.19,-5.37,6.62
22.378000,-257.7500,11,140.19,-5.37,6.62
22.388000,-156.5000,11,140.19,-5.37,6.62
22.398000,-245.1250,11,140.19,-5.37,6.62
22.408000,104.7500,11,140.19,-5.37,6.62
22.418000,-238.7500,11,140.19,-5.37,6.62
22.428000,97.6250,11,140.19,-5.37,6.62
22.438000,-228.2500,11,140.19,-5.37,6.62
22.448000,274.7500,11,140.19,-5.37,6.62
22.458000,402.0000,11,140.19,-5.37,6.62
22.468000,-624.5000,11,140.19,-5.37,6.62
22.478000,346.0000,11,140.19,-5.37,6.62
22.488000,436.2500,11,140.19,-5.37,6.62
22.498000,-613.3750,11,140.19,-5.37,6.62
22.508000,395.3750,11,140.19,-5.37,6.62
22.518000,342.8750,11,140.19,-5.37,6.62
22.528000,-506.8750,11,140.19,-5.37,6.62
22.538000,-604.1250,11,140.19,-5.37,6.62
22.548000,407.6250,11,140.19,-5.37,6.62
22.558000,-590.0000,11,140.19,-5.37,6.62
22.568000,423.5000,11,140.19,-5.37,6.62
22.578000,-602.7500,11,140.19,-5.37,6.62
22.588000,-591.6250,11,140.19,-5.37,6.62
22.598000,-585.1250,11,140.19,-5.37,6.62
22.608000,409.1250,11,140.19,-5.37,6.62
22.618000,-585.6250,11,140.19,-5.37,6.62
22.628000,401.8750,11,140.19,-5.37,6.62
22.638000,-583.1250,11,140.19,-5.37,6.62
22.648000,425.7500,11,140.19,-5.37,6.62
22.658000,-579.0000,11,140.19,-5.37,6.62
22.668000,-222.3750,11,140.19,-5.37,6.62
22.678000,-143.5000,11,140.19,-5.37,6.62
22.688000,404.5000,11,140.19,-5.37,6.62
22.698000,269.6250,11,140.19,-5.37,6.62
22.708000,-161.0000,11,140.19,-5.37,6.62
22.718000,-482.3750,11,140.19,-5.37,6.62
22.728000,280.0000,11,140.19,-5.37,6.62
22.738000,-486.3750,11,140.19,-5.37,6.62
22.748000,82.5000,11,140.19,-5.37,6.62
22.758000,279.0000,11,140.19,-5.37,6.62
22.768000,-377.6250,11,140.19,-5.37,6.62
22.778000,-436.5000,11,140.19,-5.37,6.62
22.788000,196.0000,11,140.19,-5.37,6.62
22.798000,195.8750,11,140.19,-5.37,6.62
22.808000,355.6250,11,140.19,-5.37,6.62
22.818000,-418.6250,11,140.19,-5.37,6.62
22.828000,336.7500,11,140.19,-5.37,6.62
22.838000,-413.2500,11,140.19,-5.37,6.62
22.848000,307.8750,11,140.19,-5.37,6.62
22.858000,-420.6250,11,140.19,-5.37,6.62
22.868000,305.3750,11,140.19,-5.37,6.62
22.878000,-425.7500,11,140.19,-5.37,6.62
22.888000,307.5000,11,140.19,-5.37,6.62
22.898000,-408.6250,11,140.19,-5.37,6.62
22.908000,294.6250,11,140.19,-5.37,6.62
22.918000,-421.2500,11,140.19,-5.37,6.62
22.928000,297.5000,11,140.19,-5.37,6.62
22.938000,-428.7500,11,140.19,-5.37,6.62
22.948000,-470.2500,11,140.19,-5.37,6.62
22.958000,-162.1250,11,140.19,-5.37,6.62
22.968000,323.3750,11,140.19,-5.37,6.62
22.978000,128.2500,11,140.19,-5.37,6.62
22.988000,343.0000,11,140.19,-5.37,6.62
22.998000,353.3750,11,140.19,-5.37,6.62
23.008000,-327.7500,11,140.19,-5.37,6.62
23.018000,374.1250,11,140.19,-5.37,6.62
23.028000,-119.0000,11,140.19,-5.37,6.62
23.038000,-289.6250,11,140.19,-5.37,6.62
23.048000,-307.7500,11,140.19,-5.37,6.62
23.058000,-70.8750,11,140.19,-5.37,6.62
23.068000,291.3750,11,140.19,-5.37,6.62
23.078000,373.5000,11,140.19,-5.37,6.62
23.088000,140.7500,11,140.19,-5.37,6.62
23.098000,217.1250,11,140.19,-5.37,6.62
23.108000,-281.5000,11,140.19,-5.37,6.62
23.118000,195.2500,11,140.19,-5.37,6.62
23.128000,-84.2500,11,140.19,-5.37,6.62
23.138000,247.0000,11,140.19,-5.37,6.62
23.148000,-76.0000,11,140.19,-5.37,6.62
23.158000,330.7500,11,140.19,-5.37,6.62
23.168000,-11.2500,11,140.19,-5.37,6.62
23.178000,410.7500,11,140.19,-5.37,6.62
23.188000,222.1250,11,140.19,-5.37,6.62
23.198000,353.8750,11,140.19,-5.37,6.62
23.208000,424.6250,11,140.19,-5.37,6.62
23.218000,383.8750,11,140.19,-5.37,6.62
23.228000,405.0000,11,140.19,-5.37,6.62
23.238000,-7.3750,11,140.19,-5.37,6.62
23.248000,110.1250,11,140.19,-5.37,6.62
23.258000,-21.1250,11,140.19,-5.37,6.62
23.268000,-39.1250,11,140.19,-5.37,6.62
23.278000,-42.0000,11,140.19,-5.37,6.62
23.288000,-54.7500,11,140.19,-5.37,6.62
23.298000,-77.7500,11,140.19,-5.37,6.62
23.308000,-73.7500,11,140.19,-5.37,6.62
23.318000,-64.2500,11,140.19,-5.37,6.62
23.328000,-66.7500,11,140.19,-5.37,6.62
23.338000,-69.0000,11,140.19,-5.37,6.62
23.348000,-72.3750,11,140.19,-5.37,6.62
23.358000,-86.7500,11,140.19,-5.37,6.62
23.368000,-88.8750,11,140.19,-5.37,6.62
23.378000,-88.0000,11,140.19,-5.37,6.62
23.388000,-84.7500,11,140.19,-5.37,6.62
23.398000,-93.7500,11,140.19,-5.37,6.62
23.408000,-94.8750,11,140.19,-5.37,6.62
23.418000,-110.0000,11,140.19,-5.37,6.62
23.428000,-120.5000,11,140.19,-5.37,6.62
23.438000,-137.5000,11,140.19,-5.37,6.62
23.448000,-140.5000,11,140.19,-5.37,6.62
23.458000,-145.7500,11,140.19,-5.37,6.62
23.468000,-146.1250,11,140.19,-5.37,6.62
23.478000,-148.1250,11,140.19,-5.37,6.62
23.488000,-152.2500,11,140.19,-5.37,6.62
23.498000,-151.8750,11,140.19,-5.37,6.62
23.508000,-155.0000,11,140.19,-5.37,6.62
23.518000,-159.6250,11,140.19,-5.37,6.62
23.528000,-159.6250,11,140.19,-5.37,6.62
23.538000,-161.2500,11,140.19,-5.37,6.62
23.548000,-160.8750,11,140.19,-5.37,6.62
23.558000,-165.1250,11,140.19,-5.37,6.62
23.568000,-167.6250,11,140.19,-5.37,6.62
23.578000,-170.6250,11,140.19,-5.37,6.62
23.588000,-164.3750,11,140.19,-5.37,6.62
23.598000,-159.2500,11,140.19,-5.37,6.62
23.608000,-153.1250,11,140.19,-5.37,6.62
23.618000,-148.8750,11,140.19,-5.37,6.62
23.628000,-135.3750,11,140.19,-5.37,6.62
23.638000,-93.8750,11,140.19,-5.37,6.62
23.648000,-126.2500,11,140.19,-5.37,6.62
23.658000,-56.7500,11,140.19,-5.37,6.62
23.668000,49.8750,11,140.19,-5.37,6.62
23.678000,-87.7500,11,140.19,-5.37,6.62
23.688000,191.1250,11,140.19,-5.37,6.62
23.698000,-23.6250,11,140.19,-5.37,6.62
23.708000,27.0000,11,140.19,-5.37,6.62
23.718000,-0.6250,11,140.19,-5.37,6.62
23.728000,28.8750,11,140.19,-5.37,6.62
23.738000,37.6250,11,140.19,-5.37,6.62
23.748000,222.3750,11,140.19,-5.37,6.62
23.758000,63.6250,11,140.19,-5.37,6.62
23.768000,87.7500,11,140.19,-5.37,6.62
23.778000,168.7500,11,140.19,-5.37,6.62
23.788000,188.7500,11,140.19,-5.37,6.62
23.798000,273.5000,11,140.19,-5.37,6.62
23.808000,305.7500,11,140.19,-5.37,6.62
23.818000,305.6250,11,140.19,-5.37,6.62
23.828000,304.5000,11,140.19,-5.37,6.62
23.838000,264.5000,11,140.19,-5.37,6.62
23.848000,260.0000,11,140.19,-5.37,6.62
23.858000,367.6250,11,140.19,-5.37,6.62
23.868000,359.7500,11,140.19,-5.37,6.62
23.878000,455.7500,11,140.19,-5.37,6.62
23.888000,179.0000,11,140.19,-5.37,6.62
23.898000,42.0000,11,140.19,-5.37,6.62
23.908000,224.5000,11,140.19,-5.37,6.62
23.918000,-47.6250,11,140.19,-5.37,6.62
23.928000,15.2500,11,140.19,-5.37,6.62
23.938000,291.8750,11,140.19,-5.37,6.62
23.948000,346.8750,11,140.19,-5.37,6.62
23.958000,-1.2500,11,140.19,-5.37,6.62
23.968000,304.6250,11,140.19,-5.37,6.62
23.978000,-47.6250,11,140.19,-5.37,6.62
23.988000,-125.5000,11,140.19,-5.37,6.62
23.998000,252.6250,11,140.19,-5.37,6.62
24.008000,-139.3750,11,140.19,-5.37,6.62
24.018000,234.2500,11,140.19,-5.37,6.62
24.028000,-36.0000,11,140.19,-5.37,6.62
24.038000,110.7500,11,140.19,-5.37,6.62
24.048000,139.5000,11,140.19,-5.37,6.62
24.058000,-150.7500,11,140.19,-5.37,6.62
24.068000,54.2500,11,140.19,-5.37,6.62
24.078000,42.7500,11,140.19,-5.37,6.62
24.088000,28.7500,11,140.19,-5.37,6.62
24.098000,-51.3750,11,140.19,-5.37,6.62
24.108000,20.2500,11,140.19,-5.37,6.62
24.118000,11.1250,11,140.19,-5.37,6.62
24.128000,-4.8750,11,140.19,-5.37,6.62
24.138000,-88.5000,11,140.19,-5.37,6.62
24.148000,-53.6250,11,140.19,-5.37,6.62
24.158000,-93.2500,11,140.19,-5.37,6.62
24.168000,-218.8750,11,140.19,-5.37,6.62
24.178000,-213.1250,11,140.19,-5.37,6.62
24.188000,-39.5000,11,140.19,-5.37,6.62
24.198000,-278.1250,11,140.19,-5.37,6.62
24.208000,-49.6250,11,140.19,-5.37,6.62
24.218000,-304.5000,11,140.19,-5.37,6.62
24.228000,-57.7500,11,140.19,-5.37,6.62
24.238000,-298.6250,11,140.19,-5.37,6.62
24.248000,-233.8750,11,140.19,-5.37,6.62
24.258000,-74.7500,11,140.19,-5.37,6.62
24.268000,-168.0000,11,140.19,-5.37,6.62
24.278000,-76.3750,11,140.19,-5.37,6.62
24.288000,-176.6250,11,140.19,-5.37,6.62
24.298000,-104.3750,11,140.19,-5.37,6.62
24.308000,-107.8750,11,140.19,-5.37,6.62
24.318000,-271.5000,11,140.19,-5.37,6.62
24.328000,-96.8750,11,140.19,-5.37,6.62
24.338000,-265.1250,11,140.19,-5.37,6.62
24.348000,-104.0000,11,140.19,-5.37,6.62
24.358000,-266.6250,11,140.19,-5.37,6.62
24.368000,-106.2500,11,140.19,-5.37,6.62
24.378000,-260.8750,11,140.19,-5.37,6.62
24.388000,-102.3750,11,140.19,-5.37,6.62
24.398000,-261.7500,11,140.19,-5.37,6.62
24.408000,-110.2500,11,140.19,-5.37,6.62
24.418000,-220.0000,11,140.19,-5.37,6.62
24.428000,-119.0000,11,140.19,-5.37,6.62
24.438000,-229.5000,11,140.19,-5.37,6.62
24.448000,-124.1250,11,140.19,-5.37,6.62
24.458000,-236.2500,11,140.19,-5.37,6.62
24.468000,-132.3750,11,140.19,-5.37,6.62
24.478000,-231.6250,11,140.19,-5.37,6.62
24.488000,-136.6250,11,140.19,-5.37,6.62
24.498000,-232.6250,11,140.19,-5.37,6.62
24.508000,-140.1250,11,140.19,-5.37,6.62
24.518000,-161.7500,11,140.19,-5.37,6.62
24.528000,-145.5000,11,140.19,-5.37,6.62
24.538000,-302.3750,11,140.19,-5.37,6.62
24.548000,-153.3750,11,140.19,-5.37,6.62
24.558000,-272.8750,11,140.19,-5.37,6.62
24.568000,-155.2500,11,140.19,-5.37,6.62
24.578000,-284.6250,11,140.19,-5.37,6.62
24.588000,-157.5000,11,140.19,-5.37,6.62
24.598000,-285.8750,11,140.19,-5.37,6.62
24.608000,-148.6250,11,140.19,-5.37,6.62
24.618000,-275.0000,11,140.19,-5.37,6.62
24.628000,-173.1250,11,140.19,-5.37,6.62
24.638000,-275.5000,11,140.19,-5.37,6.62
24.648000,-166.3750,11,140.19,-5.37,6.62
24.658000,-272.1250,11,140.19,-5.37,6.62
24.668000,-167.6250,11,140.19,-5.37,6.62
24.678000,-284.0000,11,140.19,-5.37,6.62
24.688000,-169.2500,11,140.19,-5.37,6.62
24.698000,-287.6250,11,140.19,-5.37,6.62
24.708000,-172.7500,11,140.19,-5.37,6.62
24.718000,-274.3750,11,140.19,-5.37,6.62
24.728000,-174.2500,11,140.19,-5.37,6.62
24.738000,-272.0000,11,140.19,-5.37,6.62
24.748000,-175.6250,11,140.19,-5.37,6.62
24.758000,-266.7500,11,140.19,-5.37,6.62
24.768000,-176.1250,11,140.19,-5.37,6.62
24.778000,-272.5000,11,140.19,-5.37,6.62
24.788000,-176.1250,11,140.19,-5.37,6.62
24.798000,-274.2500,13,71.19,-8.74,6.55
24.808000,-176.1250,13,71.19,-8.74,6.55
24.818000,-270.1250,13,71.19,-8.74,6.55
24.828000,-178.7500,13,71.19,-8.74,6.55
24.838000,-263.5000,13,71.19,-8.74,6.55
24.848000,-184.0000,13,71.19,-8.74,6.55
24.858000,-233.8750,13,71.19,-8.74,6.55
24.868000,-190.3750,13,71.19,-8.74,6.55
24.878000,-241.3750,13,71.19,-8.74,6.55
24.888000,-195.8750,13,71.19,-8.74,6.55
24.898000,-247.3750,13,71.19,-8.74,6.55
24.908000,-199.8750,13,71.19,-8.74,6.55
24.918000,-242.3750,13,71.19,-8.74,6.55
24.928000,-200.8750,13,71.19,-8.74,6.55
24.938000,-245.6250,13,71.19,-8.74,6.55
24.948000,-202.2500,13,71.19,-8.74,6.55
24.958000,-209.1250,13,71.19,-8.74,6.55
24.968000,-203.1250,13,71.19,-8.74,6.55
24.978000,-210.2500,13,71.19,-8.74,6.55
24.988000,-205.1250,13,71.19,-8.74,6.55
24.998000,-212.1250,13,71.19,-8.74,6.55
25.008000,-205.8750,13,71.19,-8.74,6.55
25.018000,-213.0000,13,71.19,-8.74,6.55
25.028000,-225.3750,13,71.19,-8.74,6.55
25.038000,-217.0000,13,71.19,-8.74,6.55
25.048000,-224.3750,13,71.19,-8.74,6.55
25.058000,-218.6250,13,71.19,-8.74,6.55
25.068000,-221.6250,13,71.19,-8.74,6.55
25.078000,-211.7500,13,71.19,-8.74,6.55
25.088000,-221.6250,13,71.19,-8.74,6.55
25.098000,-213.1250,13,71.19,-8.74,6.55
25.108000,-222.0000,13,71.19,-8.74,6.55
25.118000,-214.6250,13,71.19,-8.74,6.55
25.128000,-268.6250,13,71.19,-8.74,6.55
25.138000,-215.0000,13,71.19,-8.74,6.55
25.148000,-267.1250,13,71.19,-8.74,6.55
25.158000,-215.1250,13,71.19,-8.74,6.55
25.168000,-268.8750,13,71.19,-8.74,6.55
25.178000,-217.2500,13,71.19,-8.74,6.55
25.188000,-267.7500,13,71.19,-8.74,6.55
25.198000,-216.5000,13,71.19,-8.74,6.55
25.208000,-266.1250,13,71.19,-8.74,6.55
25.218000,-217.0000,13,71.19,-8.74,6.55
25.228000,-282.0000,13,71.19,-8.74,6.55
25.238000,-218.6250,13,71.19,-8.74,6.55
25.248000,-275.8750,13,71.19,-8.74,6.55
25.258000,-219.6250,13,71.19,-8.74,6.55
25.268000,-277.0000,13,71.19,-8.74,6.55
25.278000,-222.3750,13,71.19,-8.74,6.55
25.288000,-273.8750,13,71.19,-8.74,6.55
25.298000,-222.8750,13,71.19,-8.74,6.55
25.308000,-273.2500,13,71.19,-8.74,6.55
25.318000,-223.3750,13,71.19,-8.74,6.55
25.328000,-271.3750,13,71.19,-8.74,6.55
25.338000,-224.7500,13,71.19,-8.74,6.55
25.348000,-266.8750,13,71.19,-8.74,6.55
25.358000,-215.0000,13,71.19,-8.74,6.55
25.368000,-265.3750,13,71.19,-8.74,6.55
25.378000,-202.3750,13,71.19,-8.74,6.55
25.388000,-261.7500,13,71.19,-8.74,6.55
25.398000,-223.0000,13,71.19,-8.74,6.55
25.408000,-263.3750,13,71.19,-8.74,6.55
25.418000,-219.3750,13,71.19,-8.74,6.55
25.428000,-258.5000,13,71.19,-8.74,6.55
25.438000,-213.3750,13,71.19,-8.74,6.55
25.448000,-251.5000,13,71.19,-8.74,6.55
25.458000,-213.3750,13,71.19,-8.74,6.55
25.468000,-250.1250,13,71.19,-8.74,6.55
25.478000,-212.6250,13,71.19,-8.74,6.55
25.488000,-247.7500,13,71.19,-8.74,6.55
25.498000,-210.6250,13,71.19,-8.74,6.55
25.508000,-246.6250,13,71.19,-8.74,6.55
25.518000,-209.0000,13,71.19,-8.74,6.55
25.528000,-244.2500,13,71.19,-8.74,6.55
25.538000,-205.3750,13,71.19,-8.74,6.55
25.548000,-238.8750,13,71.19,-8.74,6.55
25.558000,-200.6250,13,71.19,-8.74,6.55
25.568000,-233.8750,13,71.19,-8.74,6.55
25.578000,-197.1250,13,71.19,-8.74,6.55
25.588000,-234.0000,13,71.19,-8.74,6.55
25.598000,-196.7500,13,71.19,-8.74,6.55
25.608000,-234.8750,13,71.19,-8.74,6.55
25.618000,-199.7500,13,71.19,-8.74,6.55
25.628000,-235.0000,13,71.19,-8.74,6.55
25.638000,-205.7500,13,71.19,-8.74,6.55
25.648000,-234.7500,13,71.19,-8.74,6.55
25.658000,-210.8750,13,71.19,-8.74,6.55
25.668000,-232.1250,13,71.19,-8.74,6.55
25.678000,-212.2500,13,71.19,-8.74,6.55
25.688000,-230.3750,13,71.19,-8.74,6.55
25.698000,-212.2500,13,71.19,-8.74,6.55
25.708000,-230.5000,13,71.19,-8.74,6.55
25.718000,-211.1250,13,71.19,-8.74,6.55
25.728000,-229.7500,13,71.19,-8.74,6.55
25.738000,-212.2500,13,71.19,-8.74,6.55
25.748000,-229.1250,13,71.19,-8.74,6.55
25.758000,-215.7500,13,71.19,-8.74,6.55
25.768000,-228.6250,13,71.19,-8.74,6.55
25.778000,-218.0000,13,71.19,-8.74,6.55
25.788000,-226.1250,13,71.19,-8.74,6.55
25.798000,-217.7500,13,71.19,-8.74,6.55
25.808000,-224.0000,13,71.19,-8.74,6.55
25.818000,-217.2500,13,71.19,-8.74,6.55
25.828000,-222.7500,13,71.19,-8.74,6.55
25.838000,-218.1250,13,71.19,-8.74,6.55
25.848000,-221.8750,13,71.19,-8.74,6.55
25.858000,-219.1250,13,71.19,-8.74,6.55
25.868000,-220.3750,13,71.19,-8.74,6.55
25.878000,-221.0000,13,71.19,-8.74,6.55
25.888000,-220.3750,13,71.19,-8.74,6.55
25.898000,-223.2500,13,71.19,-8.74,6.55
25.908000,-220.3750,13,71.19,-8.74,6.55
25.918000,-224.5000,13,71.19,-8.74,6.55
25.928000,-217.3750,13,71.19,-8.74,6.55
25.938000,-225.0000,13,71.19,-8.74,6.55
25.948000,-214.8750,13,71.19,-8.74,6.55
25.958000,-223.5000,13,71.19,-8.74,6.55
25.968000,-212.8750,13,71.19,-8.74,6.55
25.978000,-222.0000,13,71.19,-8.74,6.55
25.988000,-216.3750,13,71.19,-8.74,6.55
25.998000,-220.0000,13,71.19,-8.74,6.55
26.008000,-214.3750,13,71.19,-8.74,6.55
26.018000,-218.3750,13,71.19,-8.74,6.55
26.028000,-213.7500,13,71.19,-8.74,6.55
26.038000,-220.0000,13,71.19,-8.74,6.55
26.048000,-213.0000,13,71.19,-8.74,6.55
26.058000,-221.3750,13,71.19,-8.74,6.55
26.068000,-211.5000,13,71.19,-8.74,6.55
26.078000,-220.3750,13,71.19,-8.74,6.55
26.088000,-220.1250,13,71.19,-8.74,6.55
26.098000,-221.2500,13,71.19,-8.74,6.55
26.108000,-219.0000,13,71.19,-8.74,6.55
26.118000,-220.3750,13,71.19,-8.74,6.55
26.128000,-216.6250,13,71.19,-8.74,6.55
26.138000,-206.1250,13,71.19,-8.74,6.55
26.148000,-205.5000,13,71.19,-8.74,6.55
26.158000,-195.2500,13,71.19,-8.74,6.55
26.168000,-211.6250,13,71.19,-8.74,6.55
26.178000,-218.0000,13,71.19,-8.74,6.55
26.188000,-219.7500,13,71.19,-8.74,6.55
26.198000,-202.2500,13,71.19,-8.74,6.55
26.208000,-210.3750,13,71.19,-8.74,6.55
26.218000,-203.5000,13,71.19,-8.74,6.55
26.228000,-211.1250,13,71.19,-8.74,6.55
26.238000,-201.8750,13,71.19,-8.74,6.55
26.248000,-209.6250,13,71.19,-8.74,6.55
26.258000,-174.0000,13,71.19,-8.74,6.55
26.268000,-206.8750,13,71.19,-8.74,6.55
26.278000,-170.5000,13,71.19,-8.74,6.55
26.288000,-204.1250,13,71.19,-8.74,6.55
26.298000,-168.8750,13,71.19,-8.74,6.55
26.308000,-200.2500,13,71.19,-8.74,6.55
26.318000,-166.5000,13,71.19,-8.74,6.55
26.328000,-194.3750,13,71.19,-8.74,6.55
26.338000,-165.1250,13,71.19,-8.74,6.55
26.348000,-189.6250,13,71.19,-8.74,6.55
26.358000,-156.1250,13,71.19,-8.74,6.55
26.368000,-185.3750,13,71.19,-8.74,6.55
26.378000,-154.5000,13,71.19,-8.74,6.55
26.388000,-184.7500,13,71.19,-8.74,6.55
26.398000,-152.3750,13,71.19,-8.74,6.55
26.408000,-188.8750,13,71.19,-8.74,6.55
26.418000,-150.7500,13,71.19,-8.74,6.55
26.428000,-192.3750,13,71.19,-8.74,6.55
26.438000,-149.1250,13,71.19,-8.74,6.55
26.448000,-192.3750,13,71.19,-8.74,6.55
26.458000,-148.0000,13,71.19,-8.74,6.55
26.468000,-191.2500,13,71.19,-8.74,6.55
26.478000,-149.5000,13,71.19,-8.74,6.55
26.488000,-188.2500,13,71.19,-8.74,6.55
26.498000,-188.0000,13,71.19,-8.74,6.55
26.508000,-144.2500,13,71.19,-8.74,6.55
26.518000,-185.8750,13,71.19,-8.74,6.55
26.528000,-185.3750,13,71.19,-8.74,6.55
26.538000,-182.3750,13,71.19,-8.74,6.55
26.548000,-182.7500,13,71.19,-8.74,6.55
26.558000,-143.3750,13,71.19,-8.74,6.55
26.568000,-183.8750,13,71.19,-8.74,6.55
26.578000,-185.7500,13,71.19,-8.74,6.55
26.588000,-116.3750,13,71.19,-8.74,6.55
26.598000,-188.0000,13,71.19,-8.74,6.55
26.608000,-189.0000,13,71.19,-8.74,6.55
26.618000,-177.0000,13,71.19,-8.74,6.55
26.628000,-132.8750,13,71.19,-8.74,6.55
26.638000,-121.3750,13,71.19,-8.74,6.55
26.648000,-112.0000,13,71.19,-8.74,6.55
26.658000,-192.3750,13,71.19,-8.74,6.55
26.668000,-116.2500,13,71.19,-8.74,6.55
26.678000,-190.5000,13,71.19,-8.74,6.55
26.688000,-124.8750,13,71.19,-8.74,6.55
26.698000,-174.3750,13,71.19,-8.74,6.55
26.708000,-120.0000,13,71.19,-8.74,6.55
26.718000,-172.1250,13,71.19,-8.74,6.55
26.728000,-178.5000,13,71.19,-8.74,6.55
26.738000,-127.0000,13,71.19,-8.74,6.55
26.748000,-174.0000,13,71.19,-8.74,6.55
26.758000,-83.7500,13,71.19,-8.74,6.55
26.768000,-82.1250,13,71.19,-8.74,6.55
26.778000,-198.5000,13,71.19,-8.74,6.55
26.788000,-97.6250,13,71.19,-8.74,6.55
26.798000,-140.7500,13,71.19,-8.74,6.55
26.808000,-151.1250,13,71.19,-8.74,6.55
26.818000,-149.6250,13,71.19,-8.74,6.55
26.828000,-94.2500,13,71.19,-8.74,6.55
26.838000,-89.2500,13,71.19,-8.74,6.55
26.848000,-145.6250,13,71.19,-8.74,6.55
26.858000,-167.8750,13,71.19,-8.74,6.55
26.868000,-108.7500,13,71.19,-8.74,6.55
26.878000,-48.5000,13,71.19,-8.74,6.55
26.888000,-166.5000,13,71.19,-8.74,6.55
26.898000,-30.1250,13,71.19,-8.74,6.55
26.908000,-97.0000,13,71.19,-8.74,6.55
26.918000,-12.6250,13,71.19,-8.74,6.55
26.928000,-102.0000,13,71.19,-8.74,6.55
26.938000,-19.5000,13,71.19,-8.74,6.55
26.948000,-126.5000,13,71.19,-8.74,6.55
26.958000,-46.7500,13,71.19,-8.74,6.55
26.968000,-151.2500,13,71.19,-8.74,6.55
26.978000,-72.8750,13,71.19,-8.74,6.55
26.988000,-171.2500,13,71.19,-8.74,6.55
26.998000,-83.0000,13,71.19,-8.74,6.55
27.008000,-177.5000,13,71.19,-8.74,6.55
27.018000,-181.1250,13,71.19,-8.74,6.55
27.028000,-91.3750,13,71.19,-8.74,6.55
27.038000,-84.0000,13,71.19,-8.74,6.55
27.048000,-23.3750,13,71.19,-8.74,6.55
27.058000,-7.2500,13,71.19,-8.74,6.55
27.068000,-213.0000,13,71.19,-8.74,6.55
27.078000,95.3750,13,71.19,-8.74,6.55
27.088000,65.0000,13,71.19,-8.74,6.55
27.098000,101.3750,13,71.19,-8.74,6.55
27.108000,49.3750,13,71.19,-8.74,6.55
27.118000,60.6250,13,71.19,-8.74,6.55
27.128000,-73.0000,13,71.19,-8.74,6.55
27.138000,-30.1250,13,71.19,-8.74,6.55
27.148000,111.8750,13,71.19,-8.74,6.55
27.158000,-39.2500,13,71.19,-8.74,6.55
27.168000,-113.0000,13,71.19,-8.74,6.55
27.178000,-155.0000,13,71.19,-8.74,6.55
27.188000,39.6250,13,71.19,-8.74,6.55
27.198000,84.6250,13,71.19,-8.74,6.55
27.208000,-61.6250,13,71.19,-8.74,6.55
27.218000,67.2500,13,71.19,-8.74,6.55
27.228000,-90.8750,13,71.19,-8.74,6.55
27.238000,122.2500,13,71.19,-8.74,6.55
27.248000,-105.5000,13,71.19,-8.74,6.55
27.258000,-0.7500,13,71.19,-8.74,6.55
27.268000,49.2500,13,71.19,-8.74,6.55
27.278000,113.7500,13,71.19,-8.74,6.55
27.288000,-132.2500,13,71.19,-8.74,6.55
27.298000,55.7500,13,71.19,-8.74,6.55
27.308000,-206.2500,13,71.19,-8.74,6.55
27.318000,-174.8750,13,71.19,-8.74,6.55
27.328000,56.0000,13,71.19,-8.74,6.55
27.338000,-99.3750,13,71.19,-8.74,6.55
27.348000,-2.8750,13,71.19,-8.74,6.55
27.358000,-114.6250,13,71.19,-8.74,6.55
27.368000,24.6250,13,71.19,-8.74,6.55
27.378000,-10.1250,13,71.19,-8.74,6.55
27.388000,-29.5000,13,71.19,-8.74,6.55
27.398000,-213.2500,13,71.19,-8.74,6.55
27.408000,-0.6250,13,71.19,-8.74,6.55
27.418000,-133.1250,13,71.19,-8.74,6.55
27.428000,-205.8750,13,71.19,-8.74,6.55
27.438000,-423.3750,13,71.19,-8.74,6.55
27.448000,-524.7500,13,71.19,-8.74,6.55
27.458000,-557.7500,13,71.19,-8.74,6.55
27.468000,-239.0000,13,71.19,-8.74,6.55
27.478000,-453.6250,13,71.19,-8.74,6.55
27.488000,-219.5000,13,71.19,-8.74,6.55
27.498000,72.8750,13,71.19,-8.74,6.55
27.508000,100.2500,13,71.19,-8.74,6.55
27.518000,88.3750,13,71.19,-8.74,6.55
27.528000,63.1250,13,71.19,-8.74,6.55
27.538000,115.3750,13,71.19,-8.74,6.55
27.548000,-36.6250,13,71.19,-8.74,6.55
27.558000,66.7500,13,71.19,-8.74,6.55
27.568000,-20.0000,13,71.19,-8.74,6.55
27.578000,53.7500,13,71.19,-8.74,6.55
27.588000,-37.5000,13,71.19,-8.74,6.55
27.598000,-55.6250,13,71.19,-8.74,6.55
27.608000,-54.1250,13,71.19,-8.74,6.55
27.618000,-112.2500,13,71.19,-8.74,6.55
27.628000,183.7500,13,71.19,-8.74,6.55
27.638000,-16.5000,13,71.19,-8.74,6.55
27.648000,-81.5000,13,71.19,-8.74,6.55
27.658000,-25.0000,13,71.19,-8.74,6.55
27.668000,-29.7500,13,71.19,-8.74,6.55
27.678000,484.2500,13,71.19,-8.74,6.55
27.688000,-25.3750,13,71.19,-8.74,6.55
27.698000,439.5000,13,71.19,-8.74,6.55
27.708000,400.8750,13,71.19,-8.74,6.55
27.718000,-70.1250,13,71.19,-8.74,6.55
27.728000,-86.6250,13,71.19,-8.74,6.55
27.738000,-120.7500,13,71.19,-8.74,6.55
27.748000,82.1250,13,71.19,-8.74,6.55
27.758000,-46.0000,13,71.19,-8.74,6.55
27.768000,-148.0000,13,71.19,-8.74,6.55
27.778000,444.5000,13,71.19,-8.74,6.55
27.788000,-157.1250,13,71.19,-8.74,6.55
27.798000,-151.0000,13,71.19,-8.74,6.55
27.808000,351.6250,13,71.19,-8.74,6.55
27.818000,-19.2500,13,71.19,-8.74,6.55
27.828000,-206.8750,13,71.19,-8.74,6.55
27.838000,-108.7500,13,71.19,-8.74,6.55
27.848000,-78.0000,13,71.19,-8.74,6.55
27.858000,-184.6250,13,71.19,-8.74,6.55
27.868000,-34.2500,13,71.19,-8.74,6.55
27.878000,-88.8750,13,71.19,-8.74,6.55
27.888000,451.0000,13,71.19,-8.74,6.55
27.898000,-97.7500,13,71.19,-8.74,6.55
27.908000,38.8750,13,71.19,-8.74,6.55
27.918000,251.2500,13,71.19,-8.74,6.55
27.928000,-32.1250,13,71.19,-8.74,6.55
27.938000,-60.6250,13,71.19,-8.74,6.55
27.948000,-145.2500,13,71.19,-8.74,6.55
27.958000,344.3750,13,71.19,-8.74,6.55
27.968000,-207.0000,13,71.19,-8.74,6.55
27.978000,-78.8750,13,71.19,-8.74,6.55
27.988000,-204.7500,13,71.19,-8.74,6.55
27.998000,-217.7500,13,71.19,-8.74,6.55
28.008000,-223.1250,13,71.19,-8.74,6.55
28.018000,155.3750,13,71.19,-8.74,6.55
28.028000,-210.1250,13,71.19,-8.74,6.55
28.038000,130.3750,13,71.19,-8.74,6.55
28.048000,-253.6250,13,71.19,-8.74,6.55
28.058000,-77.6250,13,71.19,-8.74,6.55
28.068000,-59.2500,13,71.19,-8.74,6.55
28.078000,125.6250,13,71.19,-8.74,6.55
28.088000,-69.8750,13,71.19,-8.74,6.55
28.098000,529.3750,13,71.19,-8.74,6.55
28.108000,526.7500,13,71.19,-8.74,6.55
28.118000,-208.1250,13,71.19,-8.74,6.55
28.128000,-93.1250,13,71.19,-8.74,6.55
28.138000,-181.8750,13,71.19,-8.74,6.55
28.148000,-176.2500,13,71.19,-8.74,6.55
28.158000,79.3750,13,71.19,-8.74,6.55
28.168000,-208.5000,13,71.19,-8.74,6.55
28.178000,-19.5000,13,71.19,-8.74,6.55
28.188000,-239.2500,13,71.19,-8.74,6.55
28.198000,-40.6250,13,71.19,-8.74,6.55
28.208000,194.3750,13,71.19,-8.74,6.55
28.218000,443.6250,13,71.19,-8.74,6.55
28.228000,-139.8750,13,71.19,-8.74,6.55
28.238000,446.2500,13,71.19,-8.74,6.55
28.248000,-179.6250,13,71.19,-8.74,6.55
28.258000,408.5000,13,71.19,-8.74,6.55
28.268000,-204.2500,13,71.19,-8.74,6.55
28.278000,184.3750,13,71.19,-8.74,6.55
28.288000,-229.7500,13,71.19,-8.74,6.55
28.298000,-227.6250,13,71.19,-8.74,6.55
28.308000,-66.0000,13,71.19,-8.74,6.55
28.318000,-231.3750,13,71.19,-8.74,6.55
28.328000,-98.3750,13,71.19,-8.74,6.55
28.338000,-198.1250,13,71.19,-8.74,6.55
28.348000,-102.5000,13,71.19,-8.74,6.55
28.358000,-212.7500,13,71.19,-8.74,6.55
28.368000,-212.7500,13,71.19,-8.74,6.55
28.378000,475.3750,13,71.19,-8.74,6.55
28.388000,-197.0000,13,71.19,-8.74,6.55
28.398000,189.6250,13,71.19,-8.74,6.55
28.408000,-251.7500,13,71.19,-8.74,6.55
28.418000,220.7500,13,71.19,-8.74,6.55
28.428000,-233.6250,13,71.19,-8.74,6.55
28.438000,122.1250,13,71.19,-8.74,6.55
28.448000,-232.6250,13,71.19,-8.74,6.55
28.458000,31.3750,13,71.19,-8.74,6.55
28.468000,-212.7500,13,71.19,-8.74,6.55
28.478000,-79.8750,13,71.19,-8.74,6.55
28.488000,-183.6250,13,71.19,-8.74,6.55
28.498000,-62.1250,13,71.19,-8.74,6.55
28.508000,-149.6250,13,71.19,-8.74,6.55
28.518000,-74.0000,13,71.19,-8.74,6.55
28.528000,-171.2500,13,71.19,-8.74,6.55
28.538000,-19.5000,13,71.19,-8.74,6.55
28.548000,-216.6250,13,71.19,-8.74,6.55
28.558000,-50.1250,13,71.19,-8.74,6.55
28.568000,-223.5000,13,71.19,-8.74,6.55
28.578000,150.0000,13,71.19,-8.74,6.55
28.588000,-226.3750,13,71.19,-8.74,6.55
28.598000,278.3750,13,71.19,-8.74,6.55
28.608000,-221.6250,13,71.19,-8.74,6.55
28.618000,287.3750,13,71.19,-8.74,6.55
28.628000,-234.6250,13,71.19,-8.74,6.55
28.638000,168.3750,13,71.19,-8.74,6.55
28.648000,-217.6250,13,71.19,-8.74,6.55
28.658000,126.5000,13,71.19,-8.74,6.55
28.668000,-289.8750,13,71.19,-8.74,6.55
28.678000,132.7500,13,71.19,-8.74,6.55
28.688000,-233.5000,13,71.19,-8.74,6.55
28.698000,194.7500,13,71.19,-8.74,6.55
28.708000,-217.2500,13,71.19,-8.74,6.55
28.718000,73.3750,13,71.19,-8.74,6.55
28.728000,-188.8750,13,71.19,-8.74,6.55
28.738000,112.6250,13,71.19,-8.74,6.55
28.748000,-136.3750,13,71.19,-8.74,6.55
28.758000,56.6250,13,71.19,-8.74,6.55
28.768000,-202.8750,13,71.19,-8.74,6.55
28.778000,103.0000,13,71.19,-8.74,6.55
28.788000,-210.2500,13,71.19,-8.74,6.55
28.798000,-24.0000,13,71.19,-8.74,6.55
28.808000,-266.6250,13,71.19,-8.74,6.55
28.818000,-12.1250,13,71.19,-8.74,6.55
28.828000,-246.0000,15,71.60,-7.54,7.10
28.838000,-37.2500,15,71.60,-7.54,7.10
28.848000,-240.1250,15,71.60,-7.54,7.10
28.858000,-57.7500,15,71.60,-7.54,7.10
28.868000,-230.2500,15,71.60,-7.54,7.10
28.878000,-2.1250,15,71.60,-7.54,7.10
28.888000,-195.8750,15,71.60,-7.54,7.10
28.898000,-130.0000,15,71.60,-7.54,7.10
28.908000,-203.6250,15,71.60,-7.54,7.10
28.918000,-98.0000,15,71.60,-7.54,7.10
28.928000,-219.1250,15,71.60,-7.54,7.10
28.938000,-93.7500,15,71.60,-7.54,7.10
28.948000,-194.0000,15,71.60,-7.54,7.10
28.958000,-80.7500,15,71.60,-7.54,7.10
28.968000,-171.7500,15,71.60,-7.54,7.10
28.978000,-37.8750,15,71.60,-7.54,7.10
28.988000,-241.7500,15,71.60,-7.54,7.10
28.998000,-95.2500,15,71.60,-7.54,7.10
29.008000,-218.0000,15,71.60,-7.54,7.10
29.018000,-47.3750,15,71.60,-7.54,7.10
29.028000,-239.8750,15,71.60,-7.54,7.10
29.038000,-79.2500,15,71.60,-7.54,7.10
29.048000,-225.7500,15,71.60,-7.54,7.10
29.058000,-129.0000,15,71.60,-7.54,7.10
29.068000,-182.2500,15,71.60,-7.54,7.10
29.078000,-98.7500,15,71.60,-7.54,7.10
29.088000,-144.2500,15,71.60,-7.54,7.10
29.098000,-108.8750,15,71.60,-7.54,7.10
29.108000,-148.7500,15,71.60,-7.54,7.10
29.118000,-127.5000,15,71.60,-7.54,7.10
29.128000,-164.8750,15,71.60,-7.54,7.10
29.138000,-120.1250,15,71.60,-7.54,7.10
29.148000,6.0000,15,71.60,-7.54,7.10
29.158000,-83.2500,15,71.60,-7.54,7.10
29.168000,-5.2500,15,71.60,-7.54,7.10
29.178000,-98.6250,15,71.60,-7.54,7.10
29.188000,-54.6250,15,71.60,-7.54,7.10
29.198000,-122.2500,15,71.60,-7.54,7.10
29.208000,-56.8750,15,71.60,-7.54,7.10
29.218000,-129.6250,15,71.60,-7.54,7.10
29.228000,-47.7500,15,71.60,-7.54,7.10
29.238000,-101.7500,15,71.60,-7.54,7.10
29.248000,233.1250,15,71.60,-7.54,7.10
29.258000,-83.1250,15,71.60,-7.54,7.10
29.268000,276.7500,15,71.60,-7.54,7.10
29.278000,-81.6250,15,71.60,-7.54,7.10
29.288000,227.0000,15,71.60,-7.54,7.10
29.298000,-73.0000,15,71.60,-7.54,7.10
29.308000,210.6250,15,71.60,-7.54,7.10
29.318000,-78.3750,15,71.60,-7.54,7.10
29.328000,157.6250,15,71.60,-7.54,7.10
29.338000,-100.1250,15,71.60,-7.54,7.10
29.348000,84.2500,15,71.60,-7.54,7.10
29.358000,-122.3750,15,71.60,-7.54,7.10
29.368000,429.3750,15,71.60,-7.54,7.10
29.378000,-141.6250,15,71.60,-7.54,7.10
29.388000,432.7500,15,71.60,-7.54,7.10
29.398000,-184.1250,15,71.60,-7.54,7.10
29.408000,438.1250,15,71.60,-7.54,7.10
29.418000,-278.1250,15,71.60,-7.54,7.10
29.428000,490.1250,15,71.60,-7.54,7.10
29.438000,-245.1250,15,71.60,-7.54,7.10
29.448000,444.2500,15,71.60,-7.54,7.10
29.458000,-222.1250,15,71.60,-7.54,7.10
29.468000,458.1250,15,71.60,-7.54,7.10
29.478000,-197.1250,15,71.60,-7.54,7.10
29.488000,489.6250,15,71.60,-7.54,7.10
29.498000,-227.1250,15,71.60,-7.54,7.10
29.508000,455.0000,15,71.60,-7.54,7.10
29.518000,-215.3750,15,71.60,-7.54,7.10
29.528000,478.7500,15,71.60,-7.54,7.10
29.538000,-191.3750,15,71.60,-7.54,7.10
29.548000,475.1250,15,71.60,-7.54,7.10
29.558000,-216.2500,15,71.60,-7.54,7.10
29.568000,250.5000,15,71.60,-7.54,7.10
29.578000,-183.2500,15,71.60,-7.54,7.10
29.588000,248.5000,15,71.60,-7.54,7.10
29.598000,-173.8750,15,71.60,-7.54,7.10
29.608000,263.2500,15,71.60,-7.54,7.10
29.618000,-292.7500,15,71.60,-7.54,7.10
29.628000,167.8750,15,71.60,-7.54,7.10
29.638000,-238.2500,15,71.60,-7.54,7.10
29.648000,183.6250,15,71.60,-7.54,7.10
29.658000,-233.2500,15,71.60,-7.54,7.10
29.668000,86.8750,15,71.60,-7.54,7.10
29.678000,-204.1250,15,71.60,-7.54,7.10
29.688000,137.3750,15,71.60,-7.54,7.10
29.698000,-154.3750,15,71.60,-7.54,7.10
29.708000,81.5000,15,71.60,-7.54,7.10
29.718000,-218.2500,15,71.60,-7.54,7.10
29.728000,87.1250,15,71.60,-7.54,7.10
29.738000,-175.7500,15,71.60,-7.54,7.10
29.748000,206.8750,15,71.60,-7.54,7.10
29.758000,-187.0000,15,71.60,-7.54,7.10
29.768000,173.3750,15,71.60,-7.54,7.10
29.778000,-242.7500,15,71.60,-7.54,7.10
29.788000,64.7500,15,71.60,-7.54,7.10
29.798000,-258.6250,15,71.60,-7.54,7.10
29.808000,-6.0000,15,71.60,-7.54,7.10
29.818000,-307.1250,15,71.60,-7.54,7.10
29.828000,-17.1250,15,71.60,-7.54,7.10
29.838000,-257.7500,15,71.60,-7.54,7.10
29.848000,24.7500,15,71.60,-7.54,7.10
29.858000,-223.0000,15,71.60,-7.54,7.10
29.868000,56.0000,15,71.60,-7.54,7.10
29.878000,-223.8750,15,71.60,-7.54,7.10
29.888000,-65.6250,15,71.60,-7.54,7.10
29.898000,-189.0000,15,71.60,-7.54,7.10
29.908000,-71.2500,15,71.60,-7.54,7.10
29.918000,-173.6250,15,71.60,-7.54,7.10
29.928000,-53.5000,15,71.60,-7.54,7.10
29.938000,-208.8750,15,71.60,-7.54,7.10
29.948000,-62.8750,15,71.60,-7.54,7.10
29.958000,-198.2500,15,71.60,-7.54,7.10
29.968000,-25.1250,15,71.60,-7.54,7.10
29.978000,-219.3750,15,71.60,-7.54,7.10
29.988000,-40.1250,15,71.60,-7.54,7.10
29.998000,-266.0000,15,71.60,-7.54,7.10
30.008000,-95.0000,15,71.60,-7.54,7.10
30.018000,-235.1250,15,71.60,-7.54,7.10
30.028000,-95.6250,15,71.60,-7.54,7.10
30.038000,-268.0000,15,71.60,-7.54,7.10
30.048000,-123.5000,15,71.60,-7.54,7.10
30.058000,-231.0000,15,71.60,-7.54,7.10
30.068000,-98.0000,15,71.60,-7.54,7.10
30.078000,-217.2500,15,71.60,-7.54,7.10
30.088000,-100.2500,15,71.60,-7.54,7.10
30.098000,-212.8750,15,71.60,-7.54,7.10
30.108000,-115.0000,15,71.60,-7.54,7.10
30.118000,-191.8750,15,71.60,-7.54,7.10
30.128000,-107.2500,15,71.60,-7.54,7.10
30.138000,-199.0000,15,71.60,-7.54,7.10
30.148000,-140.2500,15,71.60,-7.54,7.10
30.158000,-155.3750,15,71.60,-7.54,7.10
30.168000,-94.8750,15,71.60,-7.54,7.10
30.178000,-168.5000,15,71.60,-7.54,7.10
30.188000,-122.6250,15,71.60,-7.54,7.10
30.198000,-257.1250,15,71.60,-7.54,7.10
30.208000,-94.8750,15,71.60,-7.54,7.10
30.218000,-214.5000,15,71.60,-7.54,7.10
30.228000,-154.1250,15,71.60,-7.54,7.10
30.238000,-210.1250,15,71.60,-7.54,7.10
30.248000,-160.6250,15,71.60,-7.54,7.10
30.258000,-0.6250,15,71.60,-7.54,7.10
30.268000,-147.7500,15,71.60,-7.54,7.10
30.278000,42.5000,15,71.60,-7.54,7.10
30.288000,-110.0000,15,71.60,-7.54,7.10
30.298000,99.6250,15,71.60,-7.54,7.10
30.308000,-78.7500,15,71.60,-7.54,7.10
30.318000,86.5000,15,71.60,-7.54,7.10
30.328000,-107.8750,15,71.60,-7.54,7.10
30.338000,9.2500,15,71.60,-7.54,7.10
30.348000,-93.0000,15,71.60,-7.54,7.10
30.358000,-33.3750,15,71.60,-7.54,7.10
30.368000,-86.6250,15,71.60,-7.54,7.10
30.378000,243.0000,15,71.60,-7.54,7.10
30.388000,-105.5000,15,71.60,-7.54,7.10
30.398000,178.1250,15,71.60,-7.54,7.10
30.408000,-100.3750,15,71.60,-7.54,7.10
30.418000,179.8750,15,71.60,-7.54,7.10
30.428000,-142.7500,15,71.60,-7.54,7.10
30.438000,158.0000,15,71.60,-7.54,7.10
30.448000,-161.3750,15,71.60,-7.54,7.10
30.458000,161.2500,15,71.60,-7.54,7.10
30.468000,-135.8750,15,71.60,-7.54,7.10
30.478000,468.3750,15,71.60,-7.54,7.10
30.488000,-97.3750,15,71.60,-7.54,7.10
30.498000,515.1250,15,71.60,-7.54,7.10
30.508000,-69.5000,15,71.60,-7.54,7.10
30.518000,431.3750,15,71.60,-7.54,7.10
30.528000,-254.5000,15,71.60,-7.54,7.10
30.538000,-287.0000,15,71.60,-7.54,7.10
30.548000,-247.1250,15,71.60,-7.54,7.10
30.558000,-103.1250,15,71.60,-7.54,7.10
30.568000,357.1250,15,71.60,-7.54,7.10
30.578000,-202.7500,15,71.60,-7.54,7.10
30.588000,166.1250,15,71.60,-7.54,7.10
30.598000,90.5000,15,71.60,-7.54,7.10
30.608000,-184.5000,15,71.60,-7.54,7.10
30.618000,-130.1250,15,71.60,-7.54,7.10
30.628000,-117.1250,15,71.60,-7.54,7.10
30.638000,-85.3750,15,71.60,-7.54,7.10
30.648000,-251.1250,15,71.60,-7.54,7.10
30.658000,-140.5000,15,71.60,-7.54,7.10
30.668000,-134.3750,15,71.60,-7.54,7.10
30.678000,510.1250,15,71.60,-7.54,7.10
30.688000,-109.1250,15,71.60,-7.54,7.10
30.698000,470.0000,15,71.60,-7.54,7.10
30.708000,-190.5000,15,71.60,-7.54,7.10
30.718000,471.7500,15,71.60,-7.54,7.10
30.728000,-243.0000,15,71.60,-7.54,7.10
30.738000,366.6250,15,71.60,-7.54,7.10
30.748000,168.2500,15,71.60,-7.54,7.10
30.758000,-238.1250,15,71.60,-7.54,7.10
30.768000,425.5000,15,71.60,-7.54,7.10
30.778000,472.5000,15,71.60,-7.54,7.10
30.788000,194.8750,15,71.60,-7.54,7.10
30.798000,-91.7500,15,71.60,-7.54,7.10
30.808000,-105.3750,15,71.60,-7.54,7.10
30.818000,-63.7500,15,71.60,-7.54,7.10
30.828000,-148.3750,15,71.60,-7.54,7.10
30.838000,32.6250,15,71.60,-7.54,7.10
30.848000,-218.5000,15,71.60,-7.54,7.10
30.858000,-215.2500,15,71.60,-7.54,7.10
30.868000,-180.3750,15,71.60,-7.54,7.10
30.878000,55.0000,15,71.60,-7.54,7.10
30.888000,-249.5000,15,71.60,-7.54,7.10
30.898000,-10.2500,15,71.60,-7.54,7.10
30.908000,-267.7500,15,71.60,-7.54,7.10
30.918000,-58.2500,15,71.60,-7.54,7.10
30.928000,-280.1250,15,71.60,-7.54,7.10
30.938000,-54.8750,15,71.60,-7.54,7.10
30.948000,-242.0000,15,71.60,-7.54,7.10
30.958000,-67.7500,15,71.60,-7.54,7.10
30.968000,-268.6250,15,71.60,-7.54,7.10
30.978000,-103.0000,15,71.60,-7.54,7.10
30.988000,-234.1250,15,71.60,-7.54,7.10
30.998000,-122.6250,15,71.60,-7.54,7.10
31.008000,-126.3750,15,71.60,-7.54,7.10
31.018000,-65.2500,15,71.60,-7.54,7.10
31.028000,-214.2500,15,71.60,-7.54,7.10
31.038000,-295.7500,15,71.60,-7.54,7.10
31.048000,-182.3750,15,71.60,-7.54,7.10
31.058000,-152.3750,15,71.60,-7.54,7.10
31.068000,-126.1250,15,71.60,-7.54,7.10
31.078000,-88.6250,15,71.60,-7.54,7.10
31.088000,-77.8750,15,71.60,-7.54,7.10
31.098000,-122.3750,15,71.60,-7.54,7.10
31.108000,12.2500,15,71.60,-7.54,7.10
31.118000,100.0000,15,71.60,-7.54,7.10
31.128000,195.6250,15,71.60,-7.54,7.10
31.138000,-174.0000,15,71.60,-7.54,7.10
31.148000,255.8750,15,71.60,-7.54,7.10
31.158000,-236.2500,15,71.60,-7.54,7.10
31.168000,-155.2500,15,71.60,-7.54,7.10
31.178000,-119.1250,15,71.60,-7.54,7.10
31.188000,409.3750,15,71.60,-7.54,7.10
31.198000,-82.8750,15,71.60,-7.54,7.10
31.208000,287.0000,15,71.60,-7.54,7.10
31.218000,243.2500,15,71.60,-7.54,7.10
31.228000,258.1250,15,71.60,-7.54,7.10
31.238000,-224.7500,15,71.60,-7.54,7.10
31.248000,178.8750,15,71.60,-7.54,7.10
31.258000,137.3750,15,71.60,-7.54,7.10
31.268000,-185.2500,15,71.60,-7.54,7.10
31.278000,-192.7500,15,71.60,-7.54,7.10
31.288000,-109.6250,15,71.60,-7.54,7.10
31.298000,311.8750,15,71.60,-7.54,7.10
31.308000,144.1250,15,71.60,-7.54,7.10
31.318000,182.0000,15,71.60,-7.54,7.10
31.328000,206.1250,15,71.60,-7.54,7.10
31.338000,403.2500,15,71.60,-7.54,7.10
31.348000,156.5000,15,71.60,-7.54,7.10
31.358000,-244.2500,15,71.60,-7.54,7.10
31.368000,-179.8750,15,71.60,-7.54,7.10
31.378000,-110.5000,15,71.60,-7.54,7.10
31.388000,54.3750,15,71.60,-7.54,7.10
31.398000,-211.7500,15,71.60,-7.54,7.10
31.408000,-16.6250,15,71.60,-7.54,7.10
31.418000,-216.5000,15,71.60,-7.54,7.10
31.428000,-73.0000,15,71.60,-7.54,7.10
31.438000,-221.1250,15,71.60,-7.54,7.10
31.448000,-109.6250,15,71.60,-7.54,7.10
31.458000,-198.6250,15,71.60,-7.54,7.10
31.468000,-123.0000,15,71.60,-7.54,7.10
31.478000,-128.6250,15,71.60,-7.54,7.10
31.488000,-57.0000,15,71.60,-7.54,7.10
31.498000,58.5000,15,71.60,-7.54,7.10
31.508000,-239.2500,15,71.60,-7.54,7.10
31.518000,-38.8750,15,71.60,-7.54,7.10
31.528000,89.3750,15,71.60,-7.54,7.10
31.538000,-71.3750,15,71.60,-7.54,7.10
31.548000,187.8750,15,71.60,-7.54,7.10
31.558000,-246.3750,15,71.60,-7.54,7.10
31.568000,-271.2500,15,71.60,-7.54,7.10
31.578000,-28.0000,15,71.60,-7.54,7.10
31.588000,305.6250,15,71.60,-7.54,7.10
31.598000,227.5000,15,71.60,-7.54,7.10
31.608000,-57.8750,15,71.60,-7.54,7.10
31.618000,-177.3750,15,71.60,-7.54,7.10
31.628000,-60.5000,15,71.60,-7.54,7.10
31.638000,-241.6250,15,71.60,-7.54,7.10
31.648000,-197.1250,15,71.60,-7.54,7.10
31.658000,-166.8750,15,71.60,-7.54,7.10
31.668000,-215.1250,15,71.60,-7.54,7.10
31.678000,-141.3750,15,71.60,-7.54,7.10
31.688000,110.8750,15,71.60,-7.54,7.10
31.698000,-222.6250,15,71.60,-7.54,7.10
31.708000,297.5000,15,71.60,-7.54,7.10
31.718000,219.7500,15,71.60,-7.54,7.10
31.728000,-211.7500,15,71.60,-7.54,7.10
31.738000,-55.6250,15,71.60,-7.54,7.10
31.748000,-171.1250,15,71.60,-7.54,7.10
31.758000,-268.0000,15,71.60,-7.54,7.10
31.768000,-168.6250,15,71.60,-7.54,7.10
31.778000,-116.7500,15,71.60,-7.54,7.10
31.788000,-231.0000,15,71.60,-7.54,7.10
31.798000,-228.2500,15,71.60,-7.54,7.10
31.808000,-216.0000,15,71.60,-7.54,7.10
31.818000,-180.3750,15,71.60,-7.54,7.10
31.828000,-113.3750,15,71.60,-7.54,7.10
31.838000,-124.2500,15,71.60,-7.54,7.10
31.848000,465.6250,15,71.60,-7.54,7.10
31.858000,-148.0000,15,71.60,-7.54,7.10
31.868000,480.6250,15,71.60,-7.54,7.10
31.878000,-214.0000,15,71.60,-7.54,7.10
31.888000,-162.3750,15,71.60,-7.54,7.10
31.898000,146.0000,15,71.60,-7.54,7.10
31.908000,-121.3750,15,71.60,-7.54,7.10
31.918000,72.3750,15,71.60,-7.54,7.10
31.928000,41.7500,15,71.60,-7.54,7.10
31.938000,205.8750,15,71.60,-7.54,7.10
31.948000,84.8750,15,71.60,-7.54,7.10
31.958000,-203.7500,15,71.60,-7.54,7.10
31.968000,48.0000,15,71.60,-7.54,7.10
31.978000,-148.6250,15,71.60,-7.54,7.10
31.988000,154.3750,15,71.60,-7.54,7.10
31.998000,-9.1250,15,71.60,-7.54,7.10
32.008000,-170.1250,15,71.60,-7.54,7.10
32.018000,-50.8750,15,71.60,-7.54,7.10
32.028000,-107.3750,15,71.60,-7.54,7.10
32.038000,331.7500,15,71.60,-7.54,7.10
32.048000,-74.0000,15,71.60,-7.54,7.10
32.058000,-68.5000,15,71.60,-7.54,7.10
32.068000,-214.5000,15,71.60,-7.54,7.10
32.078000,-176.8750,15,71.60,-7.54,7.10
32.088000,267.2500,15,71.60,-7.54,7.10
32.098000,-159.5000,15,71.60,-7.54,7.10
32.108000,-182.7500,15,71.60,-7.54,7.10
32.118000,-65.7500,15,71.60,-7.54,7.10
32.128000,398.6250,15,71.60,-7.54,7.10
32.138000,412.0000,15,71.60,-7.54,7.10
32.148000,-65.2500,15,71.60,-7.54,7.10
32.158000,226.0000,15,71.60,-7.54,7.10
32.168000,-171.0000,15,71.60,-7.54,7.10
32.178000,276.6250,15,71.60,-7.54,7.10
32.188000,500.0000,15,71.60,-7.54,7.10
32.198000,-79.5000,15,71.60,-7.54,7.10
32.208000,40.3750,15,71.60,-7.54,7.10
32.218000,-205.8750,15,71.60,-7.54,7.10
32.228000,8.5000,15,71.60,-7.54,7.10
32.238000,-246.8750,15,71.60,-7.54,7.10
32.248000,-168.8750,15,71.60,-7.54,7.10
32.258000,-101.3750,15,71.60,-7.54,7.10
32.268000,43.2500,15,71.60,-7.54,7.10
32.278000,-98.7500,15,71.60,-7.54,7.10
32.288000,26.8750,15,71.60,-7.54,7.10
32.298000,-98.8750,15,71.60,-7.54,7.10
32.308000,270.8750,15,71.60,-7.54,7.10
32.318000,-76.0000,15,71.60,-7.54,7.10
32.328000,-114.1250,15,71.60,-7.54,7.10
32.338000,161.5000,15,71.60,-7.54,7.10
32.348000,-214.1250,15,71.60,-7.54,7.10
32.358000,203.5000,15,71.60,-7.54,7.10
32.368000,-189.6250,15,71.60,-7.54,7.10
32.378000,191.5000,15,71.60,-7.54,7.10
32.388000,-224.1250,15,71.60,-7.54,7.10
32.398000,83.1250,15,71.60,-7.54,7.10
32.408000,-74.1250,15,71.60,-7.54,7.10
32.418000,-102.8750,15,71.60,-7.54,7.10
32.428000,155.8750,15,71.60,-7.54,7.10
32.438000,-136.0000,15,71.60,-7.54,7.10
32.448000,430.1250,15,71.60,-7.54,7.10
32.458000,-244.6250,15,71.60,-7.54,7.10
32.468000,483.6250,15,71.60,-7.54,7.10
32.478000,-201.7500,15,71.60,-7.54,7.10
32.488000,413.1250,15,71.60,-7.54,7.10
32.498000,-236.1250,15,71.60,-7.54,7.10
32.508000,179.3750,15,71.60,-7.54,7.10
32.518000,-232.1250,15,71.60,-7.54,7.10
32.528000,199.0000,15,71.60,-7.54,7.10
32.538000,-240.3750,15,71.60,-7.54,7.10
32.548000,83.7500,15,71.60,-7.54,7.10
32.558000,-162.1250,15,71.60,-7.54,7.10
32.568000,83.8750,15,71.60,-7.54,7.10
32.578000,-202.6250,15,71.60,-7.54,7.10
32.588000,107.6250,15,71.60,-7.54,7.10
32.598000,-173.8750,15,71.60,-7.54,7.10
32.608000,-196.0000,15,71.60,-7.54,7.10
32.618000,-167.7500,15,71.60,-7.54,7.10
32.628000,-247.2500,15,71.60,-7.54,7.10
32.638000,-102.6250,15,71.60,-7.54,7.10
32.648000,-217.3750,15,71.60,-7.54,7.10
32.658000,-159.8750,15,71.60,-7.54,7.10
32.668000,-168.6250,15,71.60,-7.54,7.10
32.678000,-106.3750,15,71.60,-7.54,7.10
32.688000,122.7500,15,71.60,-7.54,7.10
32.698000,-90.3750,15,71.60,-7.54,7.10
32.708000,107.3750,15,71.60,-7.54,7.10
32.718000,-57.6250,15,71.60,-7.54,7.10
32.728000,31.5000,15,71.60,-7.54,7.10
32.738000,-82.8750,15,71.60,-7.54,7.10
32.748000,6.5000,15,71.60,-7.54,7.10
32.758000,-121.0000,15,71.60,-7.54,7.10
32.768000,-52.8750,15,71.60,-7.54,7.10
32.778000,-165.1250,15,71.60,-7.54,7.10
32.788000,9.8750,15,71.60,-7.54,7.10
32.798000,-148.2500,15,71.60,-7.54,7.10
32.808000,316.0000,15,71.60,-7.54,7.10
32.818000,-92.7500,15,71.60,-7.54,7.10
32.828000,329.0000,15,71.60,-7.54,7.10
32.838000,-133.3750,15,71.60,-7.54,7.10
32.848000,278.2500,15,71.60,-7.54,7.10
32.858000,-132.7500,15,71.60,-7.54,7.10
32.868000,194.3750,15,71.60,-7.54,7.10
32.878000,-171.5000,15,71.60,-7.54,7.10
32.888000,462.1250,15,71.60,-7.54,7.10
32.898000,-185.7500,17,89.11,-4.39,6.06
32.908000,536.3750,17,89.11,-4.39,6.06
32.918000,-174.5000,17,89.11,-4.39,6.06
32.928000,531.6250,17,89.11,-4.39,6.06
32.938000,-185.2500,17,89.11,-4.39,6.06
32.948000,548.1250,17,89.11,-4.39,6.06
32.958000,-202.8750,17,89.11,-4.39,6.06
32.968000,494.2500,17,89.11,-4.39,6.06
32.978000,-196.1250,17,89.11,-4.39,6.06
32.988000,364.6250,17,89.11,-4.39,6.06
32.998000,-244.8750,17,89.11,-4.39,6.06
33.008000,320.5000,17,89.11,-4.39,6.06
33.018000,-212.6250,17,89.11,-4.39,6.06
33.028000,364.2500,17,89.11,-4.39,6.06
33.038000,-181.6250,17,89.11,-4.39,6.06
33.048000,289.3750,17,89.11,-4.39,6.06
33.058000,-205.6250,17,89.11,-4.39,6.06
33.068000,330.2500,17,89.11,-4.39,6.06
33.078000,-174.8750,17,89.11,-4.39,6.06
33.088000,333.3750,17,89.11,-4.39,6.06
33.098000,-176.3750,17,89.11,-4.39,6.06
33.108000,194.3750,17,89.11,-4.39,6.06
33.118000,-200.2500,17,89.11,-4.39,6.06
33.128000,247.1250,17,89.11,-4.39,6.06
33.138000,-181.6250,17,89.11,-4.39,6.06
33.148000,163.6250,17,89.11,-4.39,6.06
33.158000,-210.7500,17,89.11,-4.39,6.06
33.168000,201.1250,17,89.11,-4.39,6.06
33.178000,-225.3750,17,89.11,-4.39,6.06
33.188000,222.2500,17,89.11,-4.39,6.06
33.198000,-198.5000,17,89.11,-4.39,6.06
33.208000,110.2500,17,89.11,-4.39,6.06
33.218000,-167.6250,17,89.11,-4.39,6.06
33.228000,104.0000,17,89.11,-4.39,6.06
33.238000,-166.5000,17,89.11,-4.39,6.06
33.248000,132.3750,17,89.11,-4.39,6.06
33.258000,-242.5000,17,89.11,-4.39,6.06
33.268000,102.0000,17,89.11,-4.39,6.06
33.278000,-256.6250,17,89.11,-4.39,6.06
33.288000,76.2500,17,89.11,-4.39,6.06
33.298000,-265.2500,17,89.11,-4.39,6.06
33.308000,116.1250,17,89.11,-4.39,6.06
33.318000,-198.7500,17,89.11,-4.39,6.06
33.328000,-24.6250,17,89.11,-4.39,6.06
33.338000,-208.5000,17,89.11,-4.39,6.06
33.348000,17.3750,17,89.11,-4.39,6.06
33.358000,-194.5000,17,89.11,-4.39,6.06
33.368000,48.2500,17,89.11,-4.39,6.06
33.378000,-210.0000,17,89.11,-4.39,6.06
33.388000,40.1250,17,89.11,-4.39,6.06
33.398000,-244.3750,17,89.11,-4.39,6.06
33.408000,11.6250,17,89.11,-4.39,6.06
33.418000,-261.7500,17,89.11,-4.39,6.06
33.428000,-122.5000,17,89.11,-4.39,6.06
33.438000,-193.6250,17,89.11,-4.39,6.06
33.448000,-93.8750,17,89.11,-4.39,6.06
33.458000,-159.3750,17,89.11,-4.39,6.06
33.468000,-93.5000,17,89.11,-4.39,6.06
33.478000,-193.2500,17,89.11,-4.39,6.06
33.488000,-61.1250,17,89.11,-4.39,6.06
33.498000,-191.8750,17,89.11,-4.39,6.06
33.508000,-30.8750,17,89.11,-4.39,6.06
33.518000,-220.2500,17,89.11,-4.39,6.06
33.528000,-107.1250,17,89.11,-4.39,6.06
33.538000,-229.6250,17,89.11,-4.39,6.06
33.548000,-143.3750,17,89.11,-4.39,6.06
33.558000,-188.6250,17,89.11,-4.39,6.06
