timestamp_s,filtered_mV,loop,hr_bpm,snr_wb_db,snr_qrs_db
0.468000,-77.1250,0,,,
0.478000,-79.3750,0,,,
0.488000,-82.3750,0,,,
0.498000,-84.1250,0,,,
0.508000,-85.6250,0,,,
0.518000,-87.2500,0,,,
0.528000,-86.8750,0,,,
0.538000,-87.8750,0,,,
0.548000,-88.0000,0,,,
0.558000,-87.7500,0,,,
0.568000,-87.1250,0,,,
0.578000,-87.6250,0,,,
0.588000,-86.8750,0,,,
0.598000,-87.5000,0,,,
0.608000,-87.1250,0,,,
0.618000,-87.0000,0,,,
0.628000,-86.5000,0,,,
0.638000,-86.5000,0,,,
0.648000,-86.2500,0,,,
0.658000,-86.7500,0,,,
0.668000,-86.0000,0,,,
0.678000,-87.5000,0,,,
0.688000,-86.8750,0,,,
0.698000,-87.7500,0,,,
0.708000,-87.2500,0,,,
0.718000,-87.3750,0,,,
0.728000,-86.5000,0,,,
0.738000,-87.7500,0,,,
0.748000,-87.5000,0,,,
0.758000,-87.8750,0,,,
0.768000,-86.7500,0,,,
0.778000,-88.2500,0,,,
0.788000,-86.5000,0,,,
0.798000,-87.2500,0,,,
0.808000,-85.6250,0,,,
0.818000,-86.8750,0,,,
0.828000,-85.0000,0,,,
0.838000,-85.5000,0,,,
0.848000,-86.1250,0,,,
0.858000,-87.2500,0,,,
0.868000,-87.1250,0,,,
0.878000,-87.8750,0,,,
0.888000,-87.3750,0,,,
0.898000,-89.0000,0,,,
0.908000,-88.0000,0,,,
0.918000,-89.1250,0,,,
0.928000,-87.8750,0,,,
0.938000,-88.6250,0,,,
0.948000,-86.0000,0,,,
0.958000,-82.8750,0,,,
0.968000,-69.6250,0,,,
0.978000,-73.7500,0,,,
0.988000,-94.1250,0,,,
0.998000,-101.8750,0,,,
1.008000,-85.2500,0,,,
1.018000,-82.8750,0,,,
1.028000,-84.1250,0,,,
1.038000,-84.8750,0,,,
1.048000,-84.3750,0,,,
1.058000,-84.3750,0,,,
1.068000,-82.8750,0,,,
1.078000,-83.8750,0,,,
1.088000,-81.8750,0,,,
1.098000,-82.8750,0,,,
1.108000,-80.3750,0,,,
1.118000,-80.6250,0,,,
1.128000,-78.8750,0,,,
1.138000,-78.3750,0,,,
1.148000,-75.6250,0,,,
1.158000,-75.3750,0,,,
1.168000,-73.1250,0,,,
1.178000,-75.3750,0,,,
1.188000,-74.1250,0,,,
1.198000,-76.0000,0,,,
1.208000,-76.6250,0,,,
1.218000,-82.0000,0,,,
1.228000,-82.7500,0,,,
1.238000,-86.0000,0,,,
1.248000,-85.8750,0,,,
1.258000,-87.8750,0,,,
1.268000,-86.7500,0,,,
1.278000,-88.5000,0,,,
1.288000,-87.6250,0,,,
1.298000,-89.5000,0,,,
1.308000,-87.1250,0,,,
1.318000,-88.3750,0,,,
1.328000,-86.5000,0,,,
1.338000,-87.8750,0,,,
1.348000,-86.5000,0,,,
1.358000,-87.8750,0,,,
1.368000,-85.8750,0,,,
1.378000,-87.5000,0,,,
1.388000,-85.8750,0,,,
1.398000,-87.6250,0,,,
1.408000,-86.2500,0,,,
1.418000,-88.2500,0,,,
1.428000,-87.0000,0,,,
1.438000,-87.7500,0,,,
1.448000,-87.2500,0,,,
1.458000,-88.0000,0,,,
1.468000,-86.6250,0,,,
1.478000,-88.5000,0,,,
1.488000,-87.5000,0,,,
1.498000,-89.0000,0,,,
1.508000,-87.1250,0,,,
1.518000,-88.6250,0,,,
1.528000,-87.3750,0,,,
1.538000,-88.1250,0,,,
1.548000,-86.2500,0,,,
1.558000,-87.1250,0,,,
1.568000,-85.8750,0,,,
1.578000,-86.7500,0,,,
1.588000,-85.8750,0,,,
1.598000,-87.5000,0,,,
1.608000,-86.1250,0,,,
1.618000,-89.3750,0,,,
1.628000,-88.0000,0,,,
1.638000,-88.7500,0,,,
1.648000,-88.0000,0,,,
1.658000,-89.0000,0,,,
1.668000,-88.5000,0,,,
1.678000,-89.1250,0,,,
1.688000,-87.8750,0,,,
1.698000,-87.3750,0,,,
1.708000,-81.0000,0,,,
1.718000,-74.0000,0,,,
1.728000,-75.7500,0,,,
1.738000,-98.8750,0,,,
1.748000,-96.0000,0,,,
1.758000,-84.3750,0,,,
1.768000,-82.6250,0,,,
1.778000,-86.0000,0,,,
1.788000,-85.0000,0,,,
1.798000,-85.6250,0,,,
1.808000,-84.1250,0,,,
1.818000,-85.2500,0,,,
1.828000,-83.6250,0,,,
1.838000,-84.3750,0,,,
1.848000,-83.1250,0,,,
1.858000,-82.6250,0,,,
1.868000,-81.6250,0,,,
1.878000,-80.7500,0,,,
1.888000,-78.3750,0,,,
1.898000,-77.8750,0,,,
1.908000,-76.6250,0,,,
1.918000,-76.8750,0,,,
1.928000,-75.7500,0,,,
1.938000,-77.5000,0,,,
1.948000,-78.1250,0,,,
1.958000,-80.6250,0,,,
1.968000,-82.2500,0,,,
1.978000,-84.6250,0,,,
1.988000,-85.7500,0,,,
1.998000,-87.1250,0,,,
2.008000,-86.7500,0,,,
2.018000,-88.0000,0,,,
2.028000,-88.1250,0,,,
2.038000,-88.1250,0,,,
2.048000,-88.0000,0,,,
2.058000,-88.3750,0,,,
2.068000,-87.5000,0,,,
2.078000,-88.3750,0,,,
2.088000,-87.2500,0,,,
2.098000,-87.0000,0,,,
2.108000,-86.6250,0,,,
2.118000,-86.8750,0,,,
2.128000,-86.7500,0,,,
2.138000,-86.5000,0,,,
2.148000,-87.8750,0,,,
2.158000,-86.7500,0,,,
2.168000,-87.1250,0,,,
2.178000,-87.3750,0,,,
2.188000,-86.8750,0,,,
2.198000,-87.3750,0,,,
2.208000,-88.0000,0,,,
2.218000,-87.0000,0,,,
2.228000,-88.0000,0,,,
2.238000,-87.8750,0,,,
2.248000,-87.2500,0,,,
2.258000,-87.2500,0,,,
2.268000,-86.7500,0,,,
2.278000,-87.0000,0,,,
2.288000,-86.5000,0,,,
2.298000,-86.1250,0,,,
2.308000,-86.8750,0,,,
2.318000,-87.0000,0,,,
2.328000,-88.6250,0,,,
2.338000,-88.0000,0,,,
2.348000,-88.0000,0,,,
2.358000,-88.2500,0,,,
2.368000,-88.8750,0,,,
2.378000,-89.0000,0,,,
2.388000,-88.5000,0,,,
2.398000,-88.1250,0,,,
2.408000,-88.5000,0,,,
2.418000,-82.8750,0,,,
2.428000,-74.7500,0,,,
2.438000,-75.3750,0,,,
2.448000,-89.1250,0,,,
2.458000,-102.3750,0,,,
2.468000,-89.1250,0,,,
2.478000,-82.8750,0,,,
2.488000,-84.7500,0,,,
2.498000,-84.7500,0,,,
2.508000,-85.2500,0,,,
2.518000,-84.3750,0,,,
2.528000,-84.5000,0,,,
2.538000,-83.5000,0,,,
2.548000,-84.2500,0,,,
2.558000,-83.0000,0,,,
2.568000,-83.3750,0,,,
2.578000,-81.2500,0,,,
2.588000,-81.0000,0,,,
2.598000,-79.1250,0,,,
2.608000,-78.6250,0,,,
2.618000,-76.2500,0,,,
2.628000,-77.0000,0,,,
2.638000,-75.2500,0,,,
2.648000,-76.2500,0,,,
2.658000,-76.7500,0,,,
2.668000,-79.3750,0,,,
2.678000,-80.1250,0,,,
2.688000,-83.5000,0,,,
2.698000,-83.5000,0,,,
2.708000,-87.0000,0,,,
2.718000,-87.5000,0,,,
2.728000,-88.5000,0,,,
2.738000,-87.6250,0,,,
2.748000,-88.5000,0,,,
2.758000,-88.0000,0,,,
2.768000,-87.7500,0,,,
2.778000,-87.8750,0,,,
2.788000,-88.5000,0,,,
2.798000,-87.7500,0,,,
2.808000,-88.7500,0,,,
2.818000,-87.2500,0,,,
2.828000,-88.0000,0,,,
2.838000,-86.5000,0,,,
2.848000,-88.1250,0,,,
2.858000,-86.6250,0,,,
2.868000,-88.3750,0,,,
2.878000,-87.3750,0,,,
2.888000,-89.1250,0,,,
2.898000,-87.6250,0,,,
2.908000,-88.5000,0,,,
2.918000,-87.3750,0,,,
2.928000,-88.8750,0,,,
2.938000,-87.5000,0,,,
2.948000,-88.5000,0,,,
2.958000,-87.8750,0,,,
2.968000,-88.7500,0,,,
2.978000,-87.1250,0,,,
2.988000,-89.2500,0,,,
2.998000,-86.8750,0,,,
3.008000,-88.2500,0,,,
3.018000,-86.0000,0,,,
3.028000,-87.2500,0,,,
3.038000,-84.8750,0,,,
3.048000,-88.0000,0,,,
3.058000,-86.0000,0,,,
3.068000,-88.6250,0,,,
3.078000,-87.7500,0,,,
3.088000,-89.0000,0,,,
3.098000,-88.3750,0,,,
3.108000,-89.3750,0,,,
3.118000,-88.1250,0,,,
3.128000,-89.7500,0,,,
3.138000,-87.2500,0,,,
3.148000,-86.2500,0,,,
3.158000,-79.5000,0,,,
3.168000,-73.2500,0,,,
3.178000,-77.3750,0,,,
3.188000,-101.0000,0,,,
3.198000,-97.7500,0,,,
3.208000,-84.5000,0,,,
3.218000,-82.8750,0,,,
3.228000,-86.1250,0,,,
3.238000,-84.5000,0,,,
3.248000,-86.1250,0,,,
3.258000,-83.8750,0,,,
3.268000,-84.8750,0,,,
3.278000,-82.6250,0,,,
3.288000,-83.7500,0,,,
3.298000,-81.6250,0,,,
3.308000,-81.5000,0,,,
3.318000,-79.2500,0,,,
3.328000,-79.8750,0,,,
3.338000,-75.7500,0,,,
3.348000,-75.8750,0,,,
3.358000,-73.1250,0,,,
3.368000,-73.7500,0,,,
3.378000,-72.2500,0,,,
3.388000,-74.5000,0,,,
3.398000,-74.0000,0,,,
3.408000,-78.1250,0,,,
3.418000,-79.2500,0,,,
3.428000,-83.8750,0,,,
3.438000,-85.0000,0,,,
3.448000,-87.7500,0,,,
3.458000,-86.5000,0,,,
3.468000,-89.1250,0,,,
3.478000,-88.0000,0,,,
3.488000,-89.6250,0,,,
3.498000,-87.8750,0,,,
3.508000,-89.2500,0,,,
3.518000,-87.1250,0,,,
3.528000,-88.5000,0,,,
3.538000,-86.8750,0,,,
3.548000,-88.3750,0,,,
3.558000,-86.1250,0,,,
3.568000,-88.0000,0,,,
3.578000,-85.7500,0,,,
3.588000,-88.3750,0,,,
3.598000,-86.8750,0,,,
3.608000,-86.8750,0,,,
3.618000,-87.3750,0,,,
3.628000,-87.7500,0,,,
3.638000,-87.0000,0,,,
3.648000,-88.3750,0,,,
3.658000,-86.7500,0,,,
3.668000,-89.1250,0,,,
3.678000,-88.3750,0,,,
3.688000,-89.3750,0,,,
3.698000,-86.8750,0,,,
3.708000,-88.0000,0,,,
3.718000,-86.3750,0,,,
3.728000,-86.5000,0,,,
3.738000,-85.5000,0,,,
3.748000,-86.1250,0,,,
3.758000,-86.5000,0,,,
3.768000,-88.1250,0,,,
3.778000,-87.8750,0,,,
3.788000,-89.3750,0,,,
3.798000,-88.2500,0,,,
3.808000,-88.5000,0,,,
3.818000,-88.5000,0,,,
3.828000,-89.0000,0,,,
3.838000,-88.8750,0,,,
3.848000,-89.0000,0,,,
3.858000,-87.8750,0,,,
3.868000,-82.8750,0,,,
3.878000,-67.6250,0,,,
3.888000,-71.6250,0,,,
3.898000,-94.6250,0,,,
3.908000,-106.7500,0,,,
3.918000,-87.7500,0,,,
3.928000,-82.7500,0,,,
3.938000,-83.3750,0,,,
3.948000,-84.8750,0,,,
3.958000,-83.8750,0,,,
3.968000,-84.2500,0,,,
3.978000,-83.8750,0,,,
3.988000,-81.1250,0,,,
3.998000,-78.8750,0,,,
4.008000,-75.6250,0,,,
4.018000,-75.2500,0,,,
4.028000,-85.5000,0,,,
4.038000,-87.5000,0,,,
4.048000,-88.7500,0,,,
4.058000,-87.3750,0,,,
4.068000,-86.2500,0,,,
4.078000,-86.8750,0,,,
4.088000,-87.2500,0,,,
4.098000,-85.8750,0,,,
4.108000,-87.5000,0,,,
4.118000,-84.6250,0,,,
4.128000,-85.5000,0,,,
4.138000,-86.3750,0,,,
4.148000,-87.8750,0,,,
4.158000,-86.5000,0,,,
4.168000,-88.2500,0,,,
4.178000,-87.2500,0,,,
4.188000,-88.1250,0,,,
4.198000,-86.3750,0,,,
4.208000,-83.0000,0,,,
4.218000,-71.1250,0,,,
4.228000,-73.6250,0,,,
4.238000,-82.8750,0,,,
4.248000,-83.6250,0,,,
4.258000,-81.5000,0,,,
4.268000,-80.7500,0,,,
4.278000,-77.5000,0,,,
4.288000,-85.8750,0,,,
4.298000,-87.2500,0,,,
4.308000,-87.8750,0,,,
4.318000,-85.2500,0,,,
4.328000,-85.1250,0,,,
4.338000,-85.6250,0,,,
4.348000,-88.0000,0,,,
4.358000,-88.3750,0,,,
4.368000,-87.2500,0,,,
4.378000,-87.0000,0,,,
4.388000,-71.6250,0,,,
4.398000,-71.8750,0,,,
4.408000,-89.8750,0,,,
4.418000,-80.8750,0,,,
4.428000,-85.0000,0,,,
4.438000,-83.2500,0,,,
4.448000,-84.3750,0,,,
4.458000,-82.3750,0,,,
4.468000,-83.7500,0,,,
4.478000,-81.6250,0,,,
4.488000,-82.6250,0,,,
4.498000,-80.1250,0,,,
4.508000,-79.3750,0,,,
4.518000,-74.1250,0,,,
4.528000,-78.8750,0,,,
4.538000,-85.7500,0,,,
4.548000,-87.6250,0,,,
4.558000,-84.8750,0,,,
4.568000,-87.1250,0,,,
4.578000,-87.7500,0,,,
4.588000,-86.1250,0,,,
4.598000,-87.6250,0,,,
4.608000,-88.7500,0,,,
4.618000,-88.5000,0,,,
4.628000,-87.7500,0,,,
4.638000,-85.5000,0,,,
4.648000,-71.0000,0,,,
4.658000,-95.3750,0,,,
4.668000,-83.6250,0,,,
4.678000,-86.1250,0,,,
4.688000,-85.1250,0,,,
4.698000,-84.0000,0,,,
4.708000,-82.3750,0,,,
4.718000,-80.1250,0,,,
4.728000,-78.5000,0,,,
4.738000,-76.0000,0,,,
4.748000,-75.6250,0,,,
4.758000,-86.8750,0,,,
4.768000,-86.0000,0,,,
4.778000,-86.1250,0,,,
4.788000,-87.1250,0,,,
4.798000,-88.1250,0,,,
4.808000,-88.7500,0,,,
4.818000,-78.0000,0,,,
4.828000,-76.6250,0,,,
4.838000,-99.6250,0,,,
4.848000,-82.6250,0,,,
4.858000,-84.0000,0,,,
4.868000,-83.3750,0,,,
4.878000,-83.7500,0,,,
4.888000,-83.1250,0,,,
4.898000,-81.2500,0,,,
4.908000,-79.3750,0,,,
4.918000,-77.1250,0,,,
4.928000,-75.7500,0,,,
4.938000,-82.6250,0,,,
4.948000,-86.3750,0,,,
4.958000,-87.3750,0,,,
4.968000,-87.6250,0,,,
4.978000,-86.1250,0,,,
4.988000,-88.1250,0,,,
4.998000,-86.1250,0,,,
5.008000,-88.1250,0,,,
5.018000,-86.8750,0,,,
5.028000,-88.7500,0,,,
5.038000,-86.7500,0,,,
5.048000,-88.6250,0,,,
5.058000,-86.8750,0,,,
5.068000,-85.5000,0,,,
5.078000,-86.0000,0,,,
5.088000,-88.3750,0,,,
5.098000,-87.3750,0,,,
5.108000,-85.2500,0,,,
5.118000,-84.6250,0,,,
5.128000,-82.5000,0,,,
5.138000,-80.5000,0,,,
5.148000,-82.6250,0,,,
5.158000,-85.2500,0,,,
5.168000,-86.2500,0,,,
5.178000,-87.3750,0,,,
5.188000,-86.6250,0,,,
5.198000,-87.3750,0,,,
5.208000,-86.1250,0,,,
5.218000,-85.3750,0,,,
5.228000,-87.2500,0,,,
5.238000,-85.6250,0,,,
5.248000,-87.6250,0,,,
5.258000,-86.8750,0,,,
5.268000,-87.1250,0,,,
5.278000,-85.1250,0,,,
5.288000,-87.5000,0,,,
5.298000,-84.6250,0,,,
5.308000,-74.0000,0,,,
5.318000,-91.1250,0,,,
5.328000,-82.2500,0,,,
5.338000,-83.2500,0,,,
5.348000,-84.6250,0,,,
5.358000,-83.3750,0,,,
5.368000,-84.3750,0,,,
5.378000,-82.6250,0,,,
5.388000,-78.5000,0,,,
5.398000,-75.1250,0,,,
5.408000,-87.1250,0,,,
5.418000,-86.6250,0,,,
5.428000,-86.6250,0,,,
5.438000,-86.2500,0,,,
5.448000,-86.5000,0,,,
5.458000,-86.2500,0,,,
5.468000,-86.7500,0,,,
5.478000,-86.3750,0,,,
5.488000,-86.2500,0,,,
5.498000,-86.8750,0,,,
5.508000,-86.5000,0,,,
5.518000,-88.6250,0,,,
5.528000,-89.0000,0,,,
5.538000,-87.5000,0,,,
5.548000,-75.5000,0,,,
5.558000,-74.6250,0,,,
5.568000,-101.0000,0,,,
5.578000,-89.5000,0,,,
5.588000,-81.6250,0,,,
5.598000,-84.3750,0,,,
5.608000,-82.6250,0,,,
5.618000,-80.3750,0,,,
5.628000,-76.2500,0,,,
5.638000,-86.7500,0,,,
5.648000,-87.5000,0,,,
5.658000,-86.6250,0,,,
5.668000,-87.8750,0,,,
5.678000,-86.5000,0,,,
5.688000,-85.8750,0,,,
5.698000,-85.5000,0,,,
5.708000,-86.6250,0,,,
5.718000,-86.1250,0,,,
5.728000,-87.1250,0,,,
5.738000,-87.5000,0,,,
5.748000,-86.8750,0,,,
5.758000,-87.7500,0,,,
5.768000,-87.2500,0,,,
5.778000,-86.6250,0,,,
5.788000,-80.2500,0,,,
5.798000,-76.6250,0,,,
5.808000,-101.5000,0,,,
5.818000,-84.5000,0,,,
5.828000,-84.5000,0,,,
5.838000,-83.7500,0,,,
5.848000,-82.5000,0,,,
5.858000,-82.5000,0,,,
5.868000,-81.3750,0,,,
5.878000,-81.0000,0,,,
5.888000,-79.6250,0,,,
5.898000,-74.7500,0,,,
5.908000,-76.1250,0,,,
5.918000,-76.2500,0,,,
5.928000,-78.2500,0,,,
5.938000,-80.2500,0,,,
5.948000,-82.7500,0,,,
5.958000,-84.3750,0,,,
5.968000,-87.3750,0,,,
5.978000,-86.5000,0,,,
5.988000,-88.2500,0,,,
5.998000,-86.5000,0,,,
6.008000,-87.6250,0,,,
6.018000,-86.3750,0,,,
6.028000,-86.0000,0,,,
6.038000,-86.8750,0,,,
6.048000,-85.6250,0,,,
6.058000,-86.8750,0,,,
6.068000,-86.0000,0,,,
6.078000,-87.1250,0,,,
6.088000,-85.3750,0,,,
6.098000,-87.3750,0,,,
6.108000,-85.6250,0,,,
6.118000,-87.5000,0,,,
6.128000,-86.1250,0,,,
6.138000,-88.1250,0,,,
6.148000,-86.1250,0,,,
6.158000,-87.6250,0,,,
6.168000,-86.1250,0,,,
6.178000,-88.3750,0,,,
6.188000,-86.7500,0,,,
6.198000,-88.3750,0,,,
6.208000,-87.0000,0,,,
6.218000,-88.7500,0,,,
6.228000,-82.6250,0,,,
6.238000,-87.5000,0,,,
6.248000,-85.1250,0,,,
6.258000,-86.5000,0,,,
6.268000,-80.8750,0,,,
6.278000,-87.3750,0,,,
6.288000,-82.6250,0,,,
6.298000,-85.1250,0,,,
6.308000,-85.3750,0,,,
6.318000,-85.2500,0,,,
6.328000,-87.2500,0,,,
6.338000,-88.7500,0,,,
6.348000,-87.0000,0,,,
6.358000,-89.3750,0,,,
6.368000,-87.6250,0,,,
6.378000,-89.2500,0,,,
6.388000,-78.5000,0,,,
6.398000,-75.1250,0,,,
6.408000,-74.1250,0,,,
6.418000,-84.0000,0,,,
6.428000,-102.5000,0,,,
6.438000,-90.8750,0,,,
6.448000,-81.2500,3,90.33,10.81,25.02
6.458000,-84.3750,3,90.33,10.81,25.02
6.468000,-83.8750,3,90.33,10.81,25.02
6.478000,-85.8750,3,90.33,10.81,25.02
6.488000,-83.5000,3,90.33,10.81,25.02
6.498000,-85.3750,3,90.33,10.81,25.02
6.508000,-83.5000,3,90.33,10.81,25.02
6.518000,-84.6250,3,90.33,10.81,25.02
6.528000,-82.0000,3,90.33,10.81,25.02
6.538000,-83.5000,3,90.33,10.81,25.02
6.548000,-80.8750,3,90.33,10.81,25.02
6.558000,-81.3750,3,90.33,10.81,25.02
6.568000,-78.7500,3,90.33,10.81,25.02
6.578000,-79.2500,3,90.33,10.81,25.02
6.588000,-76.7500,3,90.33,10.81,25.02
6.598000,-77.5000,3,90.33,10.81,25.02
6.608000,-75.1250,3,90.33,10.81,25.02
6.618000,-76.7500,3,90.33,10.81,25.02
6.628000,-75.7500,3,90.33,10.81,25.02
6.638000,-78.6250,3,90.33,10.81,25.02
6.648000,-79.2500,3,90.33,10.81,25.02
6.658000,-83.6250,3,90.33,10.81,25.02
6.668000,-83.7500,3,90.33,10.81,25.02
6.678000,-86.5000,3,90.33,10.81,25.02
6.688000,-85.8750,3,90.33,10.81,25.02
6.698000,-88.1250,3,90.33,10.81,25.02
6.708000,-86.5000,3,90.33,10.81,25.02
6.718000,-88.2500,3,90.33,10.81,25.02
6.728000,-86.5000,3,90.33,10.81,25.02
6.738000,-88.2500,3,90.33,10.81,25.02
6.748000,-86.5000,3,90.33,10.81,25.02
6.758000,-88.1250,3,90.33,10.81,25.02
6.768000,-86.0000,3,90.33,10.81,25.02
6.778000,-87.8750,3,90.33,10.81,25.02
6.788000,-86.0000,3,90.33,10.81,25.02
6.798000,-87.1250,3,90.33,10.81,25.02
6.808000,-86.3750,3,90.33,10.81,25.02
6.818000,-87.8750,3,90.33,10.81,25.02
6.828000,-85.6250,3,90.33,10.81,25.02
6.838000,-87.6250,3,90.33,10.81,25.02
6.848000,-86.2500,3,90.33,10.81,25.02
6.858000,-87.7500,3,90.33,10.81,25.02
6.868000,-86.2500,3,90.33,10.81,25.02
6.878000,-88.2500,3,90.33,10.81,25.02
6.888000,-86.6250,3,90.33,10.81,25.02
6.898000,-87.8750,3,90.33,10.81,25.02
6.908000,-86.7500,3,90.33,10.81,25.02
6.918000,-88.0000,3,90.33,10.81,25.02
6.928000,-87.3750,3,90.33,10.81,25.02
6.938000,-88.1250,3,90.33,10.81,25.02
6.948000,-87.7500,3,90.33,10.81,25.02
6.958000,-88.3750,3,90.33,10.81,25.02
6.968000,-87.1250,3,90.33,10.81,25.02
6.978000,-88.2500,3,90.33,10.81,25.02
6.988000,-87.0000,3,90.33,10.81,25.02
6.998000,-86.8750,3,90.33,10.81,25.02
7.008000,-85.7500,3,90.33,10.81,25.02
7.018000,-86.5000,3,90.33,10.81,25.02
7.028000,-85.7500,3,90.33,10.81,25.02
7.038000,-86.0000,3,90.33,10.81,25.02
7.048000,-86.6250,3,90.33,10.81,25.02
7.058000,-87.2500,3,90.33,10.81,25.02
7.068000,-87.6250,3,90.33,10.81,25.02
7.078000,-88.2500,3,90.33,10.81,25.02
7.088000,-87.8750,3,90.33,10.81,25.02
7.098000,-88.5000,3,90.33,10.81,25.02
7.108000,-88.0000,3,90.33,10.81,25.02
7.118000,-88.3750,3,90.33,10.81,25.02
7.128000,-87.6250,3,90.33,10.81,25.02
7.138000,-88.2500,3,90.33,10.81,25.02
7.148000,-85.0000,3,90.33,10.81,25.02
7.158000,-81.6250,3,90.33,10.81,25.02
7.168000,-74.0000,3,90.33,10.81,25.02
7.178000,-79.1250,3,90.33,10.81,25.02
7.188000,-96.7500,3,90.33,10.81,25.02
7.198000,-96.1250,3,90.33,10.81,25.02
7.208000,-84.2500,3,90.33,10.81,25.02
7.218000,-82.1250,3,90.33,10.81,25.02
7.228000,-84.1250,3,90.33,10.81,25.02
7.238000,-84.7500,3,90.33,10.81,25.02
7.248000,-84.5000,3,90.33,10.81,25.02
7.258000,-84.5000,3,90.33,10.81,25.02
7.268000,-84.0000,3,90.33,10.81,25.02
7.278000,-83.8750,3,90.33,10.81,25.02
7.288000,-82.7500,3,90.33,10.81,25.02
7.298000,-82.3750,3,90.33,10.81,25.02
7.308000,-81.7500,3,90.33,10.81,25.02
7.318000,-81.1250,3,90.33,10.81,25.02
7.328000,-80.1250,3,90.33,10.81,25.02
7.338000,-78.7500,3,90.33,10.81,25.02
7.348000,-77.5000,3,90.33,10.81,25.02
7.358000,-76.5000,3,90.33,10.81,25.02
7.368000,-76.2500,3,90.33,10.81,25.02
7.378000,-76.3750,3,90.33,10.81,25.02
7.388000,-77.0000,3,90.33,10.81,25.02
7.398000,-77.5000,3,90.33,10.81,25.02
7.408000,-79.3750,3,90.33,10.81,25.02
7.418000,-81.6250,3,90.33,10.81,25.02
7.428000,-83.7500,3,90.33,10.81,25.02
7.438000,-85.1250,3,90.33,10.81,25.02
7.448000,-86.7500,3,90.33,10.81,25.02
7.458000,-87.3750,3,90.33,10.81,25.02
7.468000,-87.6250,3,90.33,10.81,25.02
7.478000,-88.2500,3,90.33,10.81,25.02
7.488000,-88.1250,3,90.33,10.81,25.02
7.498000,-87.1250,3,90.33,10.81,25.02
7.508000,-87.8750,3,90.33,10.81,25.02
7.518000,-87.2500,3,90.33,10.81,25.02
7.528000,-87.6250,3,90.33,10.81,25.02
7.538000,-86.5000,3,90.33,10.81,25.02
7.548000,-87.5000,3,90.33,10.81,25.02
7.558000,-87.0000,3,90.33,10.81,25.02
7.568000,-87.0000,3,90.33,10.81,25.02
7.578000,-86.6250,3,90.33,10.81,25.02
7.588000,-87.1250,3,90.33,10.81,25.02
7.598000,-86.2500,3,90.33,10.81,25.02
7.608000,-87.3750,3,90.33,10.81,25.02
7.618000,-86.6250,3,90.33,10.81,25.02
7.628000,-87.3750,3,90.33,10.81,25.02
7.638000,-87.2500,3,90.33,10.81,25.02
7.648000,-87.8750,3,90.33,10.81,25.02
7.658000,-87.3750,3,90.33,10.81,25.02
7.668000,-87.5000,3,90.33,10.81,25.02
7.678000,-87.3750,3,90.33,10.81,25.02
7.688000,-88.2500,3,90.33,10.81,25.02
7.698000,-87.5000,3,90.33,10.81,25.02
7.708000,-87.8750,3,90.33,10.81,25.02
7.718000,-86.8750,3,90.33,10.81,25.02
7.728000,-87.3750,3,90.33,10.81,25.02
7.738000,-86.7500,3,90.33,10.81,25.02
7.748000,-87.1250,3,90.33,10.81,25.02
7.758000,-86.0000,3,90.33,10.81,25.02
7.768000,-87.0000,3,90.33,10.81,25.02
7.778000,-84.8750,3,90.33,10.81,25.02
7.788000,-87.3750,3,90.33,10.81,25.02
7.798000,-86.0000,3,90.33,10.81,25.02
7.808000,-87.3750,3,90.33,10.81,25.02
7.818000,-87.5000,3,90.33,10.81,25.02
7.828000,-88.6250,3,90.33,10.81,25.02
7.838000,-87.8750,3,90.33,10.81,25.02
7.848000,-89.5000,3,90.33,10.81,25.02
7.858000,-88.0000,3,90.33,10.81,25.02
7.868000,-88.7500,3,90.33,10.81,25.02
7.878000,-87.8750,3,90.33,10.81,25.02
7.888000,-89.3750,3,90.33,10.81,25.02
7.898000,-83.6250,3,90.33,10.81,25.02
7.908000,-76.8750,3,90.33,10.81,25.02
7.918000,-75.7500,3,90.33,10.81,25.02
7.928000,-87.0000,3,90.33,10.81,25.02
7.938000,-101.6250,3,90.33,10.81,25.02
7.948000,-91.7500,3,90.33,10.81,25.02
7.958000,-81.7500,3,90.33,10.81,25.02
7.968000,-85.0000,3,90.33,10.81,25.02
7.978000,-84.2500,3,90.33,10.81,25.02
7.988000,-85.8750,3,90.33,10.81,25.02
7.998000,-84.3750,3,90.33,10.81,25.02
8.008000,-85.1250,3,90.33,10.81,25.02
8.018000,-82.8750,3,90.33,10.81,25.02
8.028000,-84.2500,3,90.33,10.81,25.02
8.038000,-82.0000,3,90.33,10.81,25.02
8.048000,-83.0000,3,90.33,10.81,25.02
8.058000,-80.8750,3,90.33,10.81,25.02
8.068000,-81.2500,3,90.33,10.81,25.02
8.078000,-79.3750,3,90.33,10.81,25.02
8.088000,-79.1250,3,90.33,10.81,25.02
8.098000,-76.3750,3,90.33,10.81,25.02
8.108000,-77.0000,3,90.33,10.81,25.02
8.118000,-75.0000,3,90.33,10.81,25.02
8.128000,-76.6250,3,90.33,10.81,25.02
8.138000,-75.7500,3,90.33,10.81,25.02
8.148000,-78.8750,3,90.33,10.81,25.02
8.158000,-79.0000,3,90.33,10.81,25.02
8.168000,-83.5000,3,90.33,10.81,25.02
8.178000,-85.6250,3,90.33,10.81,25.02
8.188000,-88.0000,3,90.33,10.81,25.02
8.198000,-87.0000,3,90.33,10.81,25.02
8.208000,-86.1250,3,90.33,10.81,25.02
8.218000,-86.6250,3,90.33,10.81,25.02
8.228000,-85.8750,3,90.33,10.81,25.02
8.238000,-86.7500,3,90.33,10.81,25.02
8.248000,-86.8750,3,90.33,10.81,25.02
8.258000,-86.6250,3,90.33,10.81,25.02
8.268000,-84.7500,3,90.33,10.81,25.02
8.278000,-85.2500,3,90.33,10.81,25.02
8.288000,-87.6250,3,90.33,10.81,25.02
8.298000,-87.1250,3,90.33,10.81,25.02
8.308000,-86.3750,3,90.33,10.81,25.02
8.318000,-87.0000,3,90.33,10.81,25.02
8.328000,-87.1250,3,90.33,10.81,25.02
8.338000,-81.8750,3,90.33,10.81,25.02
8.348000,-71.5000,3,90.33,10.81,25.02
8.358000,-76.0000,3,90.33,10.81,25.02
8.368000,-92.3750,3,90.33,10.81,25.02
8.378000,-102.2500,3,90.33,10.81,25.02
8.388000,-85.6250,3,90.33,10.81,25.02
8.398000,-82.1250,3,90.33,10.81,25.02
8.408000,-82.8750,3,90.33,10.81,25.02
8.418000,-81.1250,3,90.33,10.81,25.02
8.428000,-74.3750,3,90.33,10.81,25.02
8.438000,-85.6250,3,90.33,10.81,25.02
8.448000,-87.2500,3,90.33,10.81,25.02
8.458000,-88.2500,3,90.33,10.81,25.02
8.468000,-87.1250,3,90.33,10.81,25.02
8.478000,-86.6250,3,90.33,10.81,25.02
8.488000,-84.6250,3,90.33,10.81,25.02
8.498000,-86.8750,3,90.33,10.81,25.02
8.508000,-87.2500,3,90.33,10.81,25.02
8.518000,-89.1250,3,90.33,10.81,25.02
8.528000,-87.7500,3,90.33,10.81,25.02
8.538000,-88.6250,3,90.33,10.81,25.02
8.548000,-72.7500,3,90.33,10.81,25.02
8.558000,-74.1250,3,90.33,10.81,25.02
8.568000,-84.1250,3,90.33,10.81,25.02
8.578000,-82.1250,3,90.33,10.81,25.02
8.588000,-85.2500,3,90.33,10.81,25.02
8.598000,-83.6250,3,90.33,10.81,25.02
8.608000,-84.6250,3,90.33,10.81,25.02
8.618000,-83.5000,3,90.33,10.81,25.02
8.628000,-84.1250,3,90.33,10.81,25.02
8.638000,-82.3750,3,90.33,10.81,25.02
8.648000,-82.3750,3,90.33,10.81,25.02
8.658000,-80.8750,3,90.33,10.81,25.02
8.668000,-81.3750,3,90.33,10.81,25.02
8.678000,-78.6250,3,90.33,10.81,25.02
8.688000,-74.1250,3,90.33,10.81,25.02
8.698000,-79.6250,3,90.33,10.81,25.02
8.708000,-86.5000,3,90.33,10.81,25.02
8.718000,-86.6250,3,90.33,10.81,25.02
8.728000,-87.7500,3,90.33,10.81,25.02
8.738000,-87.0000,3,90.33,10.81,25.02
8.748000,-86.6250,3,90.33,10.81,25.02
8.758000,-85.0000,3,90.33,10.81,25.02
8.768000,-86.0000,3,90.33,10.81,25.02
8.778000,-87.2500,3,90.33,10.81,25.02
8.788000,-88.6250,3,90.33,10.81,25.02
8.798000,-88.0000,3,90.33,10.81,25.02
8.808000,-87.7500,3,90.33,10.81,25.02
8.818000,-87.2500,3,90.33,10.81,25.02
8.828000,-80.1250,3,90.33,10.81,25.02
8.838000,-82.2500,3,90.33,10.81,25.02
8.848000,-80.2500,3,90.33,10.81,25.02
8.858000,-74.3750,3,90.33,10.81,25.02
8.868000,-87.3750,3,90.33,10.81,25.02
8.878000,-87.6250,3,90.33,10.81,25.02
8.888000,-86.1250,3,90.33,10.81,25.02
8.898000,-87.0000,3,90.33,10.81,25.02
8.908000,-87.2500,3,90.33,10.81,25.02
8.918000,-88.1250,3,90.33,10.81,25.02
8.928000,-88.0000,3,90.33,10.81,25.02
8.938000,-87.0000,3,90.33,10.81,25.02
8.948000,-86.7500,3,90.33,10.81,25.02
8.958000,-85.1250,3,90.33,10.81,25.02
8.968000,-85.6250,3,90.33,10.81,25.02
8.978000,-87.0000,3,90.33,10.81,25.02
8.988000,-88.2500,3,90.33,10.81,25.02
8.998000,-88.5000,3,90.33,10.81,25.02
9.008000,-87.1250,3,90.33,10.81,25.02
9.018000,-74.5000,3,90.33,10.81,25.02
9.028000,-94.8750,3,90.33,10.81,25.02
9.038000,-82.1250,3,90.33,10.81,25.02
9.048000,-83.6250,3,90.33,10.81,25.02
9.058000,-80.6250,3,90.33,10.81,25.02
9.068000,-76.6250,3,90.33,10.81,25.02
9.078000,-75.7500,3,90.33,10.81,25.02
9.088000,-74.7500,3,90.33,10.81,25.02
9.098000,-74.5000,3,90.33,10.81,25.02
9.108000,-74.2500,3,90.33,10.81,25.02
9.118000,-75.5000,3,90.33,10.81,25.02
9.128000,-76.7500,3,90.33,10.81,25.02
9.138000,-85.8750,3,90.33,10.81,25.02
9.148000,-88.3750,3,90.33,10.81,25.02
9.158000,-87.8750,3,90.33,10.81,25.02
9.168000,-87.8750,3,90.33,10.81,25.02
9.178000,-86.3750,3,90.33,10.81,25.02
9.188000,-86.1250,3,90.33,10.81,25.02
9.198000,-86.2500,3,90.33,10.81,25.02
9.208000,-86.8750,3,90.33,10.81,25.02
9.218000,-88.1250,3,90.33,10.81,25.02
9.228000,-86.3750,3,90.33,10.81,25.02
9.238000,-86.7500,3,90.33,10.81,25.02
9.248000,-87.1250,3,90.33,10.81,25.02
9.258000,-87.2500,3,90.33,10.81,25.02
9.268000,-86.8750,3,90.33,10.81,25.02
9.278000,-88.0000,3,90.33,10.81,25.02
9.288000,-88.1250,3,90.33,10.81,25.02
9.298000,-86.5000,3,90.33,10.81,25.02
9.308000,-101.5000,3,90.33,10.81,25.02
9.318000,-94.0000,3,90.33,10.81,25.02
9.328000,-82.5000,3,90.33,10.81,25.02
9.338000,-81.2500,3,90.33,10.81,25.02
9.348000,-83.5000,3,90.33,10.81,25.02
9.358000,-82.0000,3,90.33,10.81,25.02
9.368000,-80.6250,3,90.33,10.81,25.02
9.378000,-84.2500,3,90.33,10.81,25.02
9.388000,-86.0000,3,90.33,10.81,25.02
9.398000,-86.6250,3,90.33,10.81,25.02
9.408000,-88.8750,3,90.33,10.81,25.02
9.418000,-88.3750,3,90.33,10.81,25.02
9.428000,-87.0000,3,90.33,10.81,25.02
9.438000,-86.6250,3,90.33,10.81,25.02
9.448000,-86.6250,3,90.33,10.81,25.02
9.458000,-86.1250,3,90.33,10.81,25.02
9.468000,-86.0000,3,90.33,10.81,25.02
9.478000,-86.5000,3,90.33,10.81,25.02
9.488000,-87.1250,3,90.33,10.81,25.02
9.498000,-84.7500,3,90.33,10.81,25.02
9.508000,-85.1250,3,90.33,10.81,25.02
9.518000,-87.1250,3,90.33,10.81,25.02
9.528000,-88.5000,3,90.33,10.81,25.02
9.538000,-87.6250,3,90.33,10.81,25.02
9.548000,-87.5000,3,90.33,10.81,25.02
9.558000,-88.1250,3,90.33,10.81,25.02
9.568000,-82.2500,3,90.33,10.81,25.02
9.578000,-73.7500,3,90.33,10.81,25.02
9.588000,-100.1250,3,90.33,10.81,25.02
9.598000,-83.3750,3,90.33,10.81,25.02
9.608000,-82.7500,3,90.33,10.81,25.02
9.618000,-74.3750,3,90.33,10.81,25.02
9.628000,-78.1250,3,90.33,10.81,25.02
9.638000,-83.7500,3,90.33,10.81,25.02
9.648000,-86.8750,3,90.33,10.81,25.02
9.658000,-87.6250,3,90.33,10.81,25.02
9.668000,-88.8750,3,90.33,10.81,25.02
9.678000,-87.0000,3,90.33,10.81,25.02
9.688000,-88.7500,3,90.33,10.81,25.02
9.698000,-86.8750,3,90.33,10.81,25.02
9.708000,-86.5000,3,90.33,10.81,25.02
9.718000,-87.2500,3,90.33,10.81,25.02
9.728000,-87.3750,3,90.33,10.81,25.02
9.738000,-88.6250,3,90.33,10.81,25.02
9.748000,-86.5000,3,90.33,10.81,25.02
9.758000,-88.7500,3,90.33,10.81,25.02
9.768000,-88.3750,3,90.33,10.81,25.02
9.778000,-89.2500,3,90.33,10.81,25.02
9.788000,-89.2500,3,90.33,10.81,25.02
9.798000,-89.0000,3,90.33,10.81,25.02
9.808000,-85.5000,3,90.33,10.81,25.02
9.818000,-71.7500,3,90.33,10.81,25.02
9.828000,-76.3750,3,90.33,10.81,25.02
9.838000,-91.0000,3,90.33,10.81,25.02
9.848000,-85.6250,3,90.33,10.81,25.02
9.858000,-86.3750,3,90.33,10.81,25.02
9.868000,-81.2500,3,90.33,10.81,25.02
9.878000,-87.5000,3,90.33,10.81,25.02
9.888000,-89.6250,3,90.33,10.81,25.02
9.898000,-89.5000,3,90.33,10.81,25.02
9.908000,-90.5000,3,90.33,10.81,25.02
9.918000,-89.3750,3,90.33,10.81,25.02
9.928000,-89.2500,3,90.33,10.81,25.02
9.938000,-89.7500,3,90.33,10.81,25.02
9.948000,-88.5000,3,90.33,10.81,25.02
9.958000,-89.6250,3,90.33,10.81,25.02
9.968000,-87.6250,3,90.33,10.81,25.02
9.978000,-88.6250,3,90.33,10.81,25.02
9.988000,-88.3750,3,90.33,10.81,25.02
9.998000,-89.2500,3,90.33,10.81,25.02
10.008000,-88.1250,3,90.33,10.81,25.02
10.018000,-89.2500,3,90.33,10.81,25.02
10.028000,-88.3750,3,90.33,10.81,25.02
10.038000,-89.3750,3,90.33,10.81,25.02
10.048000,-89.2500,3,90.33,10.81,25.02
10.058000,-88.5000,3,90.33,10.81,25.02
10.068000,-89.2500,3,90.33,10.81,25.02
10.078000,-87.8750,3,90.33,10.81,25.02
10.088000,-89.0000,3,90.33,10.81,25.02
10.098000,-87.2500,3,90.33,10.81,25.02
10.108000,-88.5000,3,90.33,10.81,25.02
10.118000,-87.2500,3,90.33,10.81,25.02
10.128000,-86.5000,3,90.33,10.81,25.02
10.138000,-87.8750,3,90.33,10.81,25.02
10.148000,-87.6250,3,90.33,10.81,25.02
10.158000,-88.8750,3,90.33,10.81,25.02
10.168000,-88.6250,3,90.33,10.81,25.02
10.178000,-90.2500,3,90.33,10.81,25.02
10.188000,-87.7500,3,90.33,10.81,25.02
10.198000,-89.7500,3,90.33,10.81,25.02
10.208000,-88.6250,3,90.33,10.81,25.02
10.218000,-90.0000,3,90.33,10.81,25.02
10.228000,-88.0000,3,90.33,10.81,25.02
10.238000,-89.7500,3,90.33,10.81,25.02
10.248000,-83.0000,3,90.33,10.81,25.02
10.258000,-75.7500,3,90.33,10.81,25.02
10.268000,-76.1250,3,90.33,10.81,25.02
10.278000,-90.2500,3,90.33,10.81,25.02
10.288000,-102.6250,3,90.33,10.81,25.02
10.298000,-87.8750,3,90.33,10.81,25.02
10.308000,-83.7500,3,90.33,10.81,25.02
10.318000,-81.2500,3,90.33,10.81,25.02
10.328000,-82.0000,3,90.33,10.81,25.02
10.338000,-85.2500,3,90.33,10.81,25.02
10.348000,-79.6250,3,90.33,10.81,25.02
10.358000,-84.2500,3,90.33,10.81,25.02
10.368000,-81.8750,3,90.33,10.81,25.02
10.378000,-82.6250,3,90.33,10.81,25.02
10.388000,-79.2500,3,90.33,10.81,25.02
10.398000,-80.3750,3,90.33,10.81,25.02
10.408000,-75.2500,3,90.33,10.81,25.02
10.418000,-74.2500,3,90.33,10.81,25.02
10.428000,-72.0000,3,90.33,10.81,25.02
10.438000,-74.1250,3,90.33,10.81,25.02
10.448000,-77.1250,3,90.33,10.81,25.02
10.458000,-80.6250,3,90.33,10.81,25.02
10.468000,-81.0000,3,90.33,10.81,25.02
10.478000,-84.7500,3,90.33,10.81,25.02
10.488000,-85.5000,3,90.33,10.81,25.02
10.498000,-88.8750,3,90.33,10.81,25.02
10.508000,-87.2500,3,90.33,10.81,25.02
10.518000,-89.7500,3,90.33,10.81,25.02
10.528000,-88.2500,3,90.33,10.81,25.02
10.538000,-89.0000,3,90.33,10.81,25.02
10.548000,-88.6250,5,90.40,9.16,19.60
10.558000,-89.7500,5,90.40,9.16,19.60
10.568000,-88.3750,5,90.40,9.16,19.60
10.578000,-89.3750,5,90.40,9.16,19.60
10.588000,-88.1250,5,90.40,9.16,19.60
10.598000,-89.3750,5,90.40,9.16,19.60
10.608000,-87.1250,5,90.40,9.16,19.60
10.618000,-88.7500,5,90.40,9.16,19.60
10.628000,-87.2500,5,90.40,9.16,19.60
10.638000,-88.6250,5,90.40,9.16,19.60
10.648000,-87.7500,5,90.40,9.16,19.60
10.658000,-88.8750,5,90.40,9.16,19.60
10.668000,-87.5000,5,90.40,9.16,19.60
10.678000,-89.3750,5,90.40,9.16,19.60
10.688000,-87.5000,5,90.40,9.16,19.60
10.698000,-89.3750,5,90.40,9.16,19.60
10.708000,-87.3750,5,90.40,9.16,19.60
10.718000,-89.0000,5,90.40,9.16,19.60
10.728000,-87.3750,5,90.40,9.16,19.60
10.738000,-89.7500,5,90.40,9.16,19.60
10.748000,-87.6250,5,90.40,9.16,19.60
10.758000,-89.8750,5,90.40,9.16,19.60
10.768000,-87.7500,5,90.40,9.16,19.60
10.778000,-89.2500,5,90.40,9.16,19.60
10.788000,-87.5000,5,90.40,9.16,19.60
10.798000,-89.7500,5,90.40,9.16,19.60
10.808000,-86.8750,5,90.40,9.16,19.60
10.818000,-89.1250,5,90.40,9.16,19.60
10.828000,-86.7500,5,90.40,9.16,19.60
10.838000,-89.1250,5,90.40,9.16,19.60
10.848000,-87.1250,5,90.40,9.16,19.60
10.858000,-88.6250,5,90.40,9.16,19.60
10.868000,-86.2500,5,90.40,9.16,19.60
10.878000,-87.7500,5,90.40,9.16,19.60
10.888000,-85.5000,5,90.40,9.16,19.60
10.898000,-87.0000,5,90.40,9.16,19.60
10.908000,-84.8750,5,90.40,9.16,19.60
10.918000,-87.1250,5,90.40,9.16,19.60
10.928000,-86.5000,5,90.40,9.16,19.60
10.938000,-88.1250,5,90.40,9.16,19.60
10.948000,-86.8750,5,90.40,9.16,19.60
10.958000,-88.6250,5,90.40,9.16,19.60
10.968000,-87.5000,5,90.40,9.16,19.60
10.978000,-89.0000,5,90.40,9.16,19.60
10.988000,-87.3750,5,90.40,9.16,19.60
10.998000,-88.7500,5,90.40,9.16,19.60
11.008000,-87.3750,5,90.40,9.16,19.60
11.018000,-88.3750,5,90.40,9.16,19.60
11.028000,-83.8750,5,90.40,9.16,19.60
11.038000,-78.7500,5,90.40,9.16,19.60
11.048000,-72.5000,5,90.40,9.16,19.60
11.058000,-80.5000,5,90.40,9.16,19.60
11.068000,-98.2500,5,90.40,9.16,19.60
11.078000,-92.6250,5,90.40,9.16,19.60
11.088000,-81.3750,5,90.40,9.16,19.60
11.098000,-82.1250,5,90.40,9.16,19.60
11.108000,-83.7500,5,90.40,9.16,19.60
11.118000,-85.0000,5,90.40,9.16,19.60
11.128000,-83.7500,5,90.40,9.16,19.60
11.138000,-83.8750,5,90.40,9.16,19.60
11.148000,-82.5000,5,90.40,9.16,19.60
11.158000,-83.7500,5,90.40,9.16,19.60
11.168000,-82.1250,5,90.40,9.16,19.60
11.178000,-82.7500,5,90.40,9.16,19.60
11.188000,-81.1250,5,90.40,9.16,19.60
11.198000,-81.2500,5,90.40,9.16,19.60
11.208000,-78.5000,5,90.40,9.16,19.60
11.218000,-78.8750,5,90.40,9.16,19.60
11.228000,-76.5000,5,90.40,9.16,19.60
11.238000,-76.1250,5,90.40,9.16,19.60
11.248000,-74.2500,5,90.40,9.16,19.60
11.258000,-75.1250,5,90.40,9.16,19.60
11.268000,-74.7500,5,90.40,9.16,19.60
11.278000,-77.1250,5,90.40,9.16,19.60
11.288000,-79.1250,5,90.40,9.16,19.60
11.298000,-81.8750,5,90.40,9.16,19.60
11.308000,-83.6250,5,90.40,9.16,19.60
11.318000,-85.8750,5,90.40,9.16,19.60
11.328000,-86.3750,5,90.40,9.16,19.60
11.338000,-87.0000,5,90.40,9.16,19.60
11.348000,-87.0000,5,90.40,9.16,19.60
11.358000,-87.6250,5,90.40,9.16,19.60
11.368000,-86.8750,5,90.40,9.16,19.60
11.378000,-87.8750,5,90.40,9.16,19.60
11.388000,-87.6250,5,90.40,9.16,19.60
11.398000,-87.7500,5,90.40,9.16,19.60
11.408000,-87.2500,5,90.40,9.16,19.60
11.418000,-88.0000,5,90.40,9.16,19.60
11.428000,-86.5000,5,90.40,9.16,19.60
11.438000,-86.6250,5,90.40,9.16,19.60
11.448000,-86.2500,5,90.40,9.16,19.60
11.458000,-86.2500,5,90.40,9.16,19.60
11.468000,-86.6250,5,90.40,9.16,19.60
11.478000,-86.2500,5,90.40,9.16,19.60
11.488000,-86.1250,5,90.40,9.16,19.60
11.498000,-87.2500,5,90.40,9.16,19.60
11.508000,-86.6250,5,90.40,9.16,19.60
11.518000,-87.6250,5,90.40,9.16,19.60
11.528000,-87.2500,5,90.40,9.16,19.60
11.538000,-87.6250,5,90.40,9.16,19.60
11.548000,-87.3750,5,90.40,9.16,19.60
11.558000,-87.0000,5,90.40,9.16,19.60
11.568000,-87.0000,5,90.40,9.16,19.60
11.578000,-87.2500,5,90.40,9.16,19.60
11.588000,-87.1250,5,90.40,9.16,19.60
11.598000,-87.1250,5,90.40,9.16,19.60
11.608000,-87.2500,5,90.40,9.16,19.60
11.618000,-87.0000,5,90.40,9.16,19.60
11.628000,-87.2500,5,90.40,9.16,19.60
11.638000,-87.2500,5,90.40,9.16,19.60
11.648000,-87.6250,5,90.40,9.16,19.60
11.658000,-86.8750,5,90.40,9.16,19.60
11.668000,-87.6250,5,90.40,9.16,19.60
11.678000,-87.5000,5,90.40,9.16,19.60
11.688000,-87.7500,5,90.40,9.16,19.60
11.698000,-87.6250,5,90.40,9.16,19.60
11.708000,-86.8750,5,90.40,9.16,19.60
11.718000,-86.7500,5,90.40,9.16,19.60
11.728000,-86.3750,5,90.40,9.16,19.60
11.738000,-85.7500,5,90.40,9.16,19.60
11.748000,-86.0000,5,90.40,9.16,19.60
11.758000,-84.7500,5,90.40,9.16,19.60
11.768000,-85.1250,5,90.40,9.16,19.60
11.778000,-84.7500,5,90.40,9.16,19.60
11.788000,-86.1250,5,90.40,9.16,19.60
11.798000,-85.7500,5,90.40,9.16,19.60
11.808000,-87.3750,5,90.40,9.16,19.60
11.818000,-86.8750,5,90.40,9.16,19.60
11.828000,-87.8750,5,90.40,9.16,19.60
11.838000,-87.1250,5,90.40,9.16,19.60
11.848000,-88.0000,5,90.40,9.16,19.60
11.858000,-87.2500,5,90.40,9.16,19.60
11.868000,-87.7500,5,90.40,9.16,19.60
11.878000,-86.5000,5,90.40,9.16,19.60
11.888000,-87.5000,5,90.40,9.16,19.60
11.898000,-81.1250,5,90.40,9.16,19.60
11.908000,-72.3750,5,90.40,9.16,19.60
11.918000,-74.8750,5,90.40,9.16,19.60
11.928000,-90.1250,5,90.40,9.16,19.60
11.938000,-98.8750,5,90.40,9.16,19.60
11.948000,-85.3750,5,90.40,9.16,19.60
11.958000,-80.3750,5,90.40,9.16,19.60
11.968000,-83.7500,5,90.40,9.16,19.60
11.978000,-83.7500,5,90.40,9.16,19.60
11.988000,-84.3750,5,90.40,9.16,19.60
11.998000,-83.3750,5,90.40,9.16,19.60
12.008000,-84.0000,5,90.40,9.16,19.60
12.018000,-82.6250,5,90.40,9.16,19.60
12.028000,-83.3750,5,90.40,9.16,19.60
12.038000,-81.8750,5,90.40,9.16,19.60
12.048000,-82.1250,5,90.40,9.16,19.60
12.058000,-79.8750,5,90.40,9.16,19.60
12.068000,-79.8750,5,90.40,9.16,19.60
12.078000,-78.6250,5,90.40,9.16,19.60
12.088000,-78.1250,5,90.40,9.16,19.60
12.098000,-75.6250,5,90.40,9.16,19.60
12.108000,-75.3750,5,90.40,9.16,19.60
12.118000,-73.5000,5,90.40,9.16,19.60
12.128000,-75.5000,5,90.40,9.16,19.60
12.138000,-74.8750,5,90.40,9.16,19.60
12.148000,-77.7500,5,90.40,9.16,19.60
12.158000,-78.7500,5,90.40,9.16,19.60
12.168000,-82.6250,5,90.40,9.16,19.60
12.178000,-83.1250,5,90.40,9.16,19.60
12.188000,-86.0000,5,90.40,9.16,19.60
12.198000,-85.6250,5,90.40,9.16,19.60
12.208000,-87.3750,5,90.40,9.16,19.60
12.218000,-86.3750,5,90.40,9.16,19.60
12.228000,-87.7500,5,90.40,9.16,19.60
12.238000,-86.1250,5,90.40,9.16,19.60
12.248000,-88.0000,5,90.40,9.16,19.60
12.258000,-86.3750,5,90.40,9.16,19.60
12.268000,-87.5000,5,90.40,9.16,19.60
12.278000,-85.7500,5,90.40,9.16,19.60
12.288000,-86.5000,5,90.40,9.16,19.60
12.298000,-85.3750,5,90.40,9.16,19.60
12.308000,-86.8750,5,90.40,9.16,19.60
12.318000,-86.0000,5,90.40,9.16,19.60
12.328000,-85.7500,5,90.40,9.16,19.60
12.338000,-87.1250,5,90.40,9.16,19.60
12.348000,-86.7500,5,90.40,9.16,19.60
12.358000,-86.2500,5,90.40,9.16,19.60
12.368000,-84.0000,5,90.40,9.16,19.60
12.378000,-85.1250,5,90.40,9.16,19.60
12.388000,-86.5000,5,90.40,9.16,19.60
12.398000,-87.1250,5,90.40,9.16,19.60
12.408000,-87.7500,5,90.40,9.16,19.60
12.418000,-86.1250,5,90.40,9.16,19.60
12.428000,-87.2500,5,90.40,9.16,19.60
12.438000,-85.8750,5,90.40,9.16,19.60
12.448000,-87.3750,5,90.40,9.16,19.60
12.458000,-84.7500,5,90.40,9.16,19.60
12.468000,-80.7500,5,90.40,9.16,19.60
12.478000,-68.8750,5,90.40,9.16,19.60
12.488000,-74.2500,5,90.40,9.16,19.60
12.498000,-83.3750,5,90.40,9.16,19.60
12.508000,-79.8750,5,90.40,9.16,19.60
12.518000,-74.3750,5,90.40,9.16,19.60
12.528000,-74.0000,5,90.40,9.16,19.60
12.538000,-83.8750,5,90.40,9.16,19.60
12.548000,-86.7500,5,90.40,9.16,19.60
12.558000,-86.8750,5,90.40,9.16,19.60
12.568000,-86.6250,5,90.40,9.16,19.60
12.578000,-87.2500,5,90.40,9.16,19.60
12.588000,-86.3750,5,90.40,9.16,19.60
12.598000,-87.6250,5,90.40,9.16,19.60
12.608000,-86.8750,5,90.40,9.16,19.60
12.618000,-85.6250,5,90.40,9.16,19.60
12.628000,-85.5000,5,90.40,9.16,19.60
12.638000,-86.8750,5,90.40,9.16,19.60
12.648000,-88.1250,5,90.40,9.16,19.60
12.658000,-88.2500,5,90.40,9.16,19.60
12.668000,-87.0000,5,90.40,9.16,19.60
12.678000,-88.7500,5,90.40,9.16,19.60
12.688000,-87.1250,5,90.40,9.16,19.60
12.698000,-88.7500,5,90.40,9.16,19.60
12.708000,-86.8750,5,90.40,9.16,19.60
12.718000,-87.8750,5,90.40,9.16,19.60
12.728000,-81.6250,5,90.40,9.16,19.60
12.738000,-73.7500,5,90.40,9.16,19.60
12.748000,-76.5000,5,90.40,9.16,19.60
12.758000,-92.8750,5,90.40,9.16,19.60
12.768000,-81.7500,5,90.40,9.16,19.60
12.778000,-85.3750,5,90.40,9.16,19.60
12.788000,-84.5000,5,90.40,9.16,19.60
12.798000,-82.3750,5,90.40,9.16,19.60
12.808000,-79.7500,5,90.40,9.16,19.60
12.818000,-77.2500,5,90.40,9.16,19.60
12.828000,-84.5000,5,90.40,9.16,19.60
12.838000,-87.2500,5,90.40,9.16,19.60
12.848000,-87.8750,5,90.40,9.16,19.60
12.858000,-87.3750,5,90.40,9.16,19.60
12.868000,-86.6250,5,90.40,9.16,19.60
12.878000,-87.8750,5,90.40,9.16,19.60
12.888000,-87.3750,5,90.40,9.16,19.60
12.898000,-87.0000,5,90.40,9.16,19.60
12.908000,-89.0000,5,90.40,9.16,19.60
12.918000,-87.3750,5,90.40,9.16,19.60
12.928000,-88.0000,5,90.40,9.16,19.60
12.938000,-86.1250,5,90.40,9.16,19.60
12.948000,-87.0000,5,90.40,9.16,19.60
12.958000,-88.5000,5,90.40,9.16,19.60
12.968000,-88.0000,5,90.40,9.16,19.60
12.978000,-88.6250,5,90.40,9.16,19.60
12.988000,-88.2500,5,90.40,9.16,19.60
12.998000,-87.5000,5,90.40,9.16,19.60
13.008000,-72.7500,5,90.40,9.16,19.60
13.018000,-83.5000,5,90.40,9.16,19.60
13.028000,-82.1250,5,90.40,9.16,19.60
13.038000,-86.0000,5,90.40,9.16,19.60
13.048000,-85.3750,5,90.40,9.16,19.60
13.058000,-85.6250,5,90.40,9.16,19.60
13.068000,-85.3750,5,90.40,9.16,19.60
13.078000,-85.8750,5,90.40,9.16,19.60
13.088000,-82.8750,5,90.40,9.16,19.60
13.098000,-78.7500,5,90.40,9.16,19.60
13.108000,-77.0000,5,90.40,9.16,19.60
13.118000,-75.2500,5,90.40,9.16,19.60
13.128000,-76.5000,5,90.40,9.16,19.60
13.138000,-80.6250,5,90.40,9.16,19.60
13.148000,-83.6250,5,90.40,9.16,19.60
13.158000,-87.5000,5,90.40,9.16,19.60
13.168000,-89.5000,5,90.40,9.16,19.60
13.178000,-85.8750,5,90.40,9.16,19.60
13.188000,-86.5000,5,90.40,9.16,19.60
13.198000,-87.2500,5,90.40,9.16,19.60
13.208000,-86.3750,5,90.40,9.16,19.60
13.218000,-88.1250,5,90.40,9.16,19.60
13.228000,-88.1250,5,90.40,9.16,19.60
13.238000,-88.0000,5,90.40,9.16,19.60
13.248000,-88.3750,5,90.40,9.16,19.60
13.258000,-86.3750,5,90.40,9.16,19.60
13.268000,-86.7500,5,90.40,9.16,19.60
13.278000,-86.3750,5,90.40,9.16,19.60
13.288000,-86.1250,5,90.40,9.16,19.60
13.298000,-85.0000,5,90.40,9.16,19.60
13.308000,-87.1250,5,90.40,9.16,19.60
13.318000,-86.3750,5,90.40,9.16,19.60
13.328000,-71.7500,5,90.40,9.16,19.60
13.338000,-82.5000,5,90.40,9.16,19.60
13.348000,-80.6250,5,90.40,9.16,19.60
13.358000,-80.3750,5,90.40,9.16,19.60
13.368000,-77.3750,5,90.40,9.16,19.60
13.378000,-74.8750,5,90.40,9.16,19.60
13.388000,-72.3750,5,90.40,9.16,19.60
13.398000,-72.6250,5,90.40,9.16,19.60
13.408000,-70.2500,5,90.40,9.16,19.60
13.418000,-81.1250,5,90.40,9.16,19.60
13.428000,-85.2500,5,90.40,9.16,19.60
13.438000,-85.6250,5,90.40,9.16,19.60
13.448000,-83.3750,5,90.40,9.16,19.60
13.458000,-83.1250,5,90.40,9.16,19.60
13.468000,-85.1250,5,90.40,9.16,19.60
13.478000,-85.7500,5,90.40,9.16,19.60
13.488000,-82.1250,5,90.40,9.16,19.60
13.498000,-85.5000,5,90.40,9.16,19.60
13.508000,-84.2500,5,90.40,9.16,19.60
13.518000,-83.5000,5,90.40,9.16,19.60
13.528000,-82.8750,5,90.40,9.16,19.60
13.538000,-77.3750,5,90.40,9.16,19.60
13.548000,-72.6250,5,90.40,9.16,19.60
13.558000,-93.6250,5,90.40,9.16,19.60
13.568000,-82.7500,5,90.40,9.16,19.60
13.578000,-82.1250,5,90.40,9.16,19.60
13.588000,-83.0000,5,90.40,9.16,19.60
13.598000,-81.7500,5,90.40,9.16,19.60
13.608000,-79.7500,5,90.40,9.16,19.60
13.618000,-80.0000,5,90.40,9.16,19.60
13.628000,-75.3750,5,90.40,9.16,19.60
13.638000,-74.3750,5,90.40,9.16,19.60
13.648000,-82.8750,5,90.40,9.16,19.60
13.658000,-86.5000,5,90.40,9.16,19.60
13.668000,-87.3750,5,90.40,9.16,19.60
13.678000,-85.6250,5,90.40,9.16,19.60
13.688000,-84.1250,5,90.40,9.16,19.60
13.698000,-87.1250,5,90.40,9.16,19.60
13.708000,-86.7500,5,90.40,9.16,19.60
13.718000,-87.3750,5,90.40,9.16,19.60
13.728000,-86.1250,5,90.40,9.16,19.60
13.738000,-88.2500,5,90.40,9.16,19.60
13.748000,-86.5000,5,90.40,9.16,19.60
13.758000,-88.0000,5,90.40,9.16,19.60
13.768000,-85.3750,5,90.40,9.16,19.60
13.778000,-86.2500,5,90.40,9.16,19.60
13.788000,-89.0000,5,90.40,9.16,19.60
13.798000,-87.2500,5,90.40,9.16,19.60
13.808000,-85.8750,5,90.40,9.16,19.60
13.818000,-85.6250,5,90.40,9.16,19.60
13.828000,-85.0000,5,90.40,9.16,19.60
13.838000,-81.2500,5,90.40,9.16,19.60
13.848000,-81.6250,5,90.40,9.16,19.60
13.858000,-78.6250,5,90.40,9.16,19.60
13.868000,-79.7500,5,90.40,9.16,19.60
13.878000,-76.2500,5,90.40,9.16,19.60
13.888000,-77.7500,5,90.40,9.16,19.60
13.898000,-75.8750,5,90.40,9.16,19.60
13.908000,-83.1250,5,90.40,9.16,19.60
13.918000,-84.0000,5,90.40,9.16,19.60
13.928000,-87.1250,5,90.40,9.16,19.60
13.938000,-87.1250,5,90.40,9.16,19.60
13.948000,-89.0000,5,90.40,9.16,19.60
13.958000,-88.7500,5,90.40,9.16,19.60
13.968000,-89.2500,5,90.40,9.16,19.60
13.978000,-88.3750,5,90.40,9.16,19.60
13.988000,-88.2500,5,90.40,9.16,19.60
13.998000,-89.7500,5,90.40,9.16,19.60
14.008000,-86.6250,5,90.40,9.16,19.60
14.018000,-89.0000,5,90.40,9.16,19.60
14.028000,-87.7500,5,90.40,9.16,19.60
14.038000,-88.5000,5,90.40,9.16,19.60
14.048000,-87.1250,5,90.40,9.16,19.60
14.058000,-88.5000,5,90.40,9.16,19.60
14.068000,-88.5000,5,90.40,9.16,19.60
14.078000,-88.3750,5,90.40,9.16,19.60
14.088000,-87.6250,5,90.40,9.16,19.60
14.098000,-88.1250,5,90.40,9.16,19.60
14.108000,-89.3750,5,90.40,9.16,19.60
14.118000,-87.3750,5,90.40,9.16,19.60
14.128000,-90.2500,5,90.40,9.16,19.60
14.138000,-88.0000,5,90.40,9.16,19.60
14.148000,-89.7500,5,90.40,9.16,19.60
14.158000,-87.3750,5,90.40,9.16,19.60
14.168000,-90.3750,5,90.40,9.16,19.60
14.178000,-88.3750,5,90.40,9.16,19.60
14.188000,-89.2500,5,90.40,9.16,19.60
14.198000,-87.0000,5,90.40,9.16,19.60
14.208000,-88.0000,5,90.40,9.16,19.60
14.218000,-87.1250,5,90.40,9.16,19.60
14.228000,-88.2500,5,90.40,9.16,19.60
14.238000,-86.6250,5,90.40,9.16,19.60
14.248000,-88.6250,5,90.40,9.16,19.60
14.258000,-90.1250,5,90.40,9.16,19.60
14.268000,-86.1250,5,90.40,9.16,19.60
14.278000,-87.0000,5,90.40,9.16,19.60
14.288000,-91.1250,5,90.40,9.16,19.60
14.298000,-85.1250,5,90.40,9.16,19.60
14.308000,-86.5000,5,90.40,9.16,19.60
14.318000,-75.2500,5,90.40,9.16,19.60
14.328000,-69.6250,5,90.40,9.16,19.60
14.338000,-83.7500,5,90.40,9.16,19.60
14.348000,-108.7500,5,90.40,9.16,19.60
14.358000,-91.5000,5,90.40,9.16,19.60
14.368000,-87.7500,5,90.40,9.16,19.60
14.378000,-86.7500,5,90.40,9.16,19.60
14.388000,-88.5000,5,90.40,9.16,19.60
14.398000,-87.1250,5,90.40,9.16,19.60
14.408000,-87.7500,5,90.40,9.16,19.60
14.418000,-81.5000,5,90.40,9.16,19.60
14.428000,-82.6250,5,90.40,9.16,19.60
14.438000,-84.3750,5,90.40,9.16,19.60
14.448000,-85.8750,5,90.40,9.16,19.60
14.458000,-82.5000,7,110.41,7.75,9.21
14.468000,-82.7500,7,110.41,7.75,9.21
14.478000,-80.6250,7,110.41,7.75,9.21
14.488000,-80.0000,7,110.41,7.75,9.21
14.498000,-77.6250,7,110.41,7.75,9.21
14.508000,-76.6250,7,110.41,7.75,9.21
14.518000,-75.5000,7,110.41,7.75,9.21
14.528000,-76.3750,7,110.41,7.75,9.21
14.538000,-74.1250,7,110.41,7.75,9.21
14.548000,-77.0000,7,110.41,7.75,9.21
14.558000,-78.1250,7,110.41,7.75,9.21
14.568000,-80.8750,7,110.41,7.75,9.21
14.578000,-84.3750,7,110.41,7.75,9.21
14.588000,-87.7500,7,110.41,7.75,9.21
14.598000,-88.8750,7,110.41,7.75,9.21
14.608000,-89.5000,7,110.41,7.75,9.21
14.618000,-90.7500,7,110.41,7.75,9.21
14.628000,-90.8750,7,110.41,7.75,9.21
14.638000,-90.2500,7,110.41,7.75,9.21
14.648000,-91.1250,7,110.41,7.75,9.21
14.658000,-90.1250,7,110.41,7.75,9.21
14.668000,-90.0000,7,110.41,7.75,9.21
14.678000,-89.8750,7,110.41,7.75,9.21
14.688000,-89.8750,7,110.41,7.75,9.21
14.698000,-88.8750,7,110.41,7.75,9.21
14.708000,-89.3750,7,110.41,7.75,9.21
14.718000,-89.5000,7,110.41,7.75,9.21
14.728000,-89.0000,7,110.41,7.75,9.21
14.738000,-88.5000,7,110.41,7.75,9.21
14.748000,-89.3750,7,110.41,7.75,9.21
14.758000,-89.6250,7,110.41,7.75,9.21
14.768000,-89.8750,7,110.41,7.75,9.21
14.778000,-88.7500,7,110.41,7.75,9.21
14.788000,-90.3750,7,110.41,7.75,9.21
14.798000,-90.0000,7,110.41,7.75,9.21
14.808000,-90.2500,7,110.41,7.75,9.21
14.818000,-88.6250,7,110.41,7.75,9.21
14.828000,-89.8750,7,110.41,7.75,9.21
14.838000,-89.0000,7,110.41,7.75,9.21
14.848000,-90.0000,7,110.41,7.75,9.21
14.858000,-89.0000,7,110.41,7.75,9.21
14.868000,-88.8750,7,110.41,7.75,9.21
14.878000,-86.8750,7,110.41,7.75,9.21
14.888000,-87.0000,7,110.41,7.75,9.21
14.898000,-87.1250,7,110.41,7.75,9.21
14.908000,-88.5000,7,110.41,7.75,9.21
14.918000,-87.7500,7,110.41,7.75,9.21
14.928000,-90.1250,7,110.41,7.75,9.21
14.938000,-89.6250,7,110.41,7.75,9.21
14.948000,-89.8750,7,110.41,7.75,9.21
14.958000,-89.2500,7,110.41,7.75,9.21
14.968000,-89.8750,7,110.41,7.75,9.21
14.978000,-89.3750,7,110.41,7.75,9.21
14.988000,-90.3750,7,110.41,7.75,9.21
14.998000,-89.3750,7,110.41,7.75,9.21
15.008000,-87.3750,7,110.41,7.75,9.21
15.018000,-81.5000,7,110.41,7.75,9.21
15.028000,-68.7500,7,110.41,7.75,9.21
15.038000,-69.5000,7,110.41,7.75,9.21
15.048000,-103.7500,7,110.41,7.75,9.21
15.058000,-102.5000,7,110.41,7.75,9.21
15.068000,-90.6250,7,110.41,7.75,9.21
15.078000,-86.3750,7,110.41,7.75,9.21
15.088000,-86.3750,7,110.41,7.75,9.21
15.098000,-87.3750,7,110.41,7.75,9.21
15.108000,-84.8750,7,110.41,7.75,9.21
15.118000,-85.2500,7,110.41,7.75,9.21
15.128000,-83.1250,7,110.41,7.75,9.21
15.138000,-83.1250,7,110.41,7.75,9.21
15.148000,-82.0000,7,110.41,7.75,9.21
15.158000,-82.3750,7,110.41,7.75,9.21
15.168000,-80.5000,7,110.41,7.75,9.21
15.178000,-78.8750,7,110.41,7.75,9.21
15.188000,-77.3750,7,110.41,7.75,9.21
15.198000,-76.5000,7,110.41,7.75,9.21
15.208000,-73.1250,7,110.41,7.75,9.21
15.218000,-73.3750,7,110.41,7.75,9.21
15.228000,-71.7500,7,110.41,7.75,9.21
15.238000,-71.5000,7,110.41,7.75,9.21
15.248000,-72.2500,7,110.41,7.75,9.21
15.258000,-74.3750,7,110.41,7.75,9.21
15.268000,-76.7500,7,110.41,7.75,9.21
15.278000,-80.3750,7,110.41,7.75,9.21
15.288000,-82.5000,7,110.41,7.75,9.21
15.298000,-86.2500,7,110.41,7.75,9.21
15.308000,-86.7500,7,110.41,7.75,9.21
15.318000,-88.7500,7,110.41,7.75,9.21
15.328000,-87.8750,7,110.41,7.75,9.21
15.338000,-88.7500,7,110.41,7.75,9.21
15.348000,-88.6250,7,110.41,7.75,9.21
15.358000,-89.2500,7,110.41,7.75,9.21
15.368000,-88.2500,7,110.41,7.75,9.21
15.378000,-89.1250,7,110.41,7.75,9.21
15.388000,-88.0000,7,110.41,7.75,9.21
15.398000,-88.6250,7,110.41,7.75,9.21
15.408000,-88.2500,7,110.41,7.75,9.21
15.418000,-88.5000,7,110.41,7.75,9.21
15.428000,-87.8750,7,110.41,7.75,9.21
15.438000,-89.1250,7,110.41,7.75,9.21
15.448000,-89.8750,7,110.41,7.75,9.21
15.458000,-88.8750,7,110.41,7.75,9.21
15.468000,-88.3750,7,110.41,7.75,9.21
15.478000,-88.3750,7,110.41,7.75,9.21
15.488000,-87.8750,7,110.41,7.75,9.21
15.498000,-89.0000,7,110.41,7.75,9.21
15.508000,-87.8750,7,110.41,7.75,9.21
15.518000,-88.7500,7,110.41,7.75,9.21
15.528000,-87.3750,7,110.41,7.75,9.21
15.538000,-88.8750,7,110.41,7.75,9.21
15.548000,-87.1250,7,110.41,7.75,9.21
15.558000,-88.5000,7,110.41,7.75,9.21
15.568000,-86.6250,7,110.41,7.75,9.21
15.578000,-87.7500,7,110.41,7.75,9.21
15.588000,-84.2500,7,110.41,7.75,9.21
15.598000,-87.6250,7,110.41,7.75,9.21
15.608000,-85.8750,7,110.41,7.75,9.21
15.618000,-88.3750,7,110.41,7.75,9.21
15.628000,-88.2500,7,110.41,7.75,9.21
15.638000,-90.3750,7,110.41,7.75,9.21
15.648000,-87.7500,7,110.41,7.75,9.21
15.658000,-90.1250,7,110.41,7.75,9.21
15.668000,-87.8750,7,110.41,7.75,9.21
15.678000,-89.7500,7,110.41,7.75,9.21
15.688000,-87.5000,7,110.41,7.75,9.21
15.698000,-89.3750,7,110.41,7.75,9.21
15.708000,-83.8750,7,110.41,7.75,9.21
15.718000,-79.3750,7,110.41,7.75,9.21
15.728000,-64.6250,7,110.41,7.75,9.21
15.738000,-69.0000,7,110.41,7.75,9.21
15.748000,-105.6250,7,110.41,7.75,9.21
15.758000,-103.0000,7,110.41,7.75,9.21
15.768000,-89.2500,7,110.41,7.75,9.21
15.778000,-86.1250,7,110.41,7.75,9.21
15.788000,-83.6250,7,110.41,7.75,9.21
15.798000,-85.6250,7,110.41,7.75,9.21
15.808000,-81.8750,7,110.41,7.75,9.21
15.818000,-83.7500,7,110.41,7.75,9.21
15.828000,-81.8750,7,110.41,7.75,9.21
15.838000,-81.6250,7,110.41,7.75,9.21
15.848000,-79.1250,7,110.41,7.75,9.21
15.858000,-80.6250,7,110.41,7.75,9.21
15.868000,-77.7500,7,110.41,7.75,9.21
15.878000,-77.5000,7,110.41,7.75,9.21
15.888000,-74.8750,7,110.41,7.75,9.21
15.898000,-73.6250,7,110.41,7.75,9.21
15.908000,-69.8750,7,110.41,7.75,9.21
15.918000,-70.1250,7,110.41,7.75,9.21
15.928000,-67.5000,7,110.41,7.75,9.21
15.938000,-69.0000,7,110.41,7.75,9.21
15.948000,-68.5000,7,110.41,7.75,9.21
15.958000,-71.5000,7,110.41,7.75,9.21
15.968000,-73.0000,7,110.41,7.75,9.21
15.978000,-78.8750,7,110.41,7.75,9.21
15.988000,-80.2500,7,110.41,7.75,9.21
15.998000,-85.7500,7,110.41,7.75,9.21
16.008000,-85.7500,7,110.41,7.75,9.21
16.018000,-89.1250,7,110.41,7.75,9.21
16.028000,-86.8750,7,110.41,7.75,9.21
16.038000,-89.7500,7,110.41,7.75,9.21
16.048000,-87.0000,7,110.41,7.75,9.21
16.058000,-89.5000,7,110.41,7.75,9.21
16.068000,-86.7500,7,110.41,7.75,9.21
16.078000,-88.5000,7,110.41,7.75,9.21
16.088000,-86.0000,7,110.41,7.75,9.21
16.098000,-88.7500,7,110.41,7.75,9.21
16.108000,-86.6250,7,110.41,7.75,9.21
16.118000,-88.3750,7,110.41,7.75,9.21
16.128000,-86.5000,7,110.41,7.75,9.21
16.138000,-87.5000,7,110.41,7.75,9.21
16.148000,-86.1250,7,110.41,7.75,9.21
16.158000,-88.7500,7,110.41,7.75,9.21
16.168000,-87.0000,7,110.41,7.75,9.21
16.178000,-88.5000,7,110.41,7.75,9.21
16.188000,-87.0000,7,110.41,7.75,9.21
16.198000,-89.0000,7,110.41,7.75,9.21
16.208000,-87.5000,7,110.41,7.75,9.21
16.218000,-88.8750,7,110.41,7.75,9.21
16.228000,-86.3750,7,110.41,7.75,9.21
16.238000,-87.3750,7,110.41,7.75,9.21
16.248000,-85.2500,7,110.41,7.75,9.21
16.258000,-89.5000,7,110.41,7.75,9.21
16.268000,-83.2500,7,110.41,7.75,9.21
16.278000,-94.6250,7,110.41,7.75,9.21
16.288000,-82.3750,7,110.41,7.75,9.21
16.298000,-77.7500,7,110.41,7.75,9.21
16.308000,-75.6250,7,110.41,7.75,9.21
16.318000,-73.3750,7,110.41,7.75,9.21
16.328000,-67.7500,7,110.41,7.75,9.21
16.338000,-66.2500,7,110.41,7.75,9.21
16.348000,-77.0000,7,110.41,7.75,9.21
16.358000,-78.3750,7,110.41,7.75,9.21
16.368000,-83.8750,7,110.41,7.75,9.21
16.378000,-86.1250,7,110.41,7.75,9.21
16.388000,-88.3750,7,110.41,7.75,9.21
16.398000,-87.5000,7,110.41,7.75,9.21
16.408000,-89.6250,7,110.41,7.75,9.21
16.418000,-87.8750,7,110.41,7.75,9.21
16.428000,-88.6250,7,110.41,7.75,9.21
16.438000,-87.2500,7,110.41,7.75,9.21
16.448000,-89.1250,7,110.41,7.75,9.21
16.458000,-84.8750,7,110.41,7.75,9.21
16.468000,-90.1250,7,110.41,7.75,9.21
16.478000,-85.1250,7,110.41,7.75,9.21
16.488000,-82.2500,7,110.41,7.75,9.21
16.498000,-79.3750,7,110.41,7.75,9.21
16.508000,-73.2500,7,110.41,7.75,9.21
16.518000,-68.3750,7,110.41,7.75,9.21
16.528000,-66.3750,7,110.41,7.75,9.21
16.538000,-65.3750,7,110.41,7.75,9.21
16.548000,-72.3750,7,110.41,7.75,9.21
16.558000,-78.0000,7,110.41,7.75,9.21
16.568000,-83.0000,7,110.41,7.75,9.21
16.578000,-84.1250,7,110.41,7.75,9.21
16.588000,-87.2500,7,110.41,7.75,9.21
16.598000,-87.2500,7,110.41,7.75,9.21
16.608000,-88.5000,7,110.41,7.75,9.21
16.618000,-87.2500,7,110.41,7.75,9.21
16.628000,-88.3750,7,110.41,7.75,9.21
16.638000,-86.7500,7,110.41,7.75,9.21
16.648000,-87.7500,7,110.41,7.75,9.21
16.658000,-87.1250,7,110.41,7.75,9.21
16.668000,-87.6250,7,110.41,7.75,9.21
16.678000,-89.0000,7,110.41,7.75,9.21
16.688000,-88.2500,7,110.41,7.75,9.21
16.698000,-88.3750,7,110.41,7.75,9.21
16.708000,-87.8750,7,110.41,7.75,9.21
16.718000,-88.0000,7,110.41,7.75,9.21
16.728000,-87.8750,7,110.41,7.75,9.21
16.738000,-84.3750,7,110.41,7.75,9.21
16.748000,-83.0000,7,110.41,7.75,9.21
16.758000,-73.6250,7,110.41,7.75,9.21
16.768000,-77.2500,7,110.41,7.75,9.21
16.778000,-82.5000,7,110.41,7.75,9.21
16.788000,-83.0000,7,110.41,7.75,9.21
16.798000,-87.1250,7,110.41,7.75,9.21
16.808000,-88.2500,7,110.41,7.75,9.21
16.818000,-86.2500,7,110.41,7.75,9.21
16.828000,-86.0000,7,110.41,7.75,9.21
16.838000,-86.7500,7,110.41,7.75,9.21
16.848000,-86.2500,7,110.41,7.75,9.21
16.858000,-86.1250,7,110.41,7.75,9.21
16.868000,-85.3750,7,110.41,7.75,9.21
16.878000,-85.5000,7,110.41,7.75,9.21
16.888000,-84.8750,7,110.41,7.75,9.21
16.898000,-87.5000,7,110.41,7.75,9.21
16.908000,-85.6250,7,110.41,7.75,9.21
16.918000,-88.1250,7,110.41,7.75,9.21
16.928000,-86.6250,7,110.41,7.75,9.21
16.938000,-89.0000,7,110.41,7.75,9.21
16.948000,-86.8750,7,110.41,7.75,9.21
16.958000,-82.5000,7,110.41,7.75,9.21
16.968000,-79.8750,7,110.41,7.75,9.21
16.978000,-102.0000,7,110.41,7.75,9.21
16.988000,-81.7500,7,110.41,7.75,9.21
16.998000,-85.2500,7,110.41,7.75,9.21
17.008000,-84.8750,7,110.41,7.75,9.21
17.018000,-84.5000,7,110.41,7.75,9.21
17.028000,-82.3750,7,110.41,7.75,9.21
17.038000,-75.2500,7,110.41,7.75,9.21
17.048000,-87.2500,7,110.41,7.75,9.21
17.058000,-87.0000,7,110.41,7.75,9.21
17.068000,-88.0000,7,110.41,7.75,9.21
17.078000,-86.5000,7,110.41,7.75,9.21
17.088000,-86.5000,7,110.41,7.75,9.21
17.098000,-87.1250,7,110.41,7.75,9.21
17.108000,-87.7500,7,110.41,7.75,9.21
17.118000,-87.0000,7,110.41,7.75,9.21
17.128000,-85.6250,7,110.41,7.75,9.21
17.138000,-86.6250,7,110.41,7.75,9.21
17.148000,-84.8750,7,110.41,7.75,9.21
17.158000,-87.5000,7,110.41,7.75,9.21
17.168000,-88.0000,7,110.41,7.75,9.21
17.178000,-84.5000,7,110.41,7.75,9.21
17.188000,-86.1250,7,110.41,7.75,9.21
17.198000,-86.3750,7,110.41,7.75,9.21
17.208000,-86.0000,7,110.41,7.75,9.21
17.218000,-86.1250,7,110.41,7.75,9.21
17.228000,-85.3750,7,110.41,7.75,9.21
17.238000,-84.8750,7,110.41,7.75,9.21
17.248000,-87.1250,7,110.41,7.75,9.21
17.258000,-89.2500,7,110.41,7.75,9.21
17.268000,-87.8750,7,110.41,7.75,9.21
17.278000,-90.1250,7,110.41,7.75,9.21
17.288000,-88.2500,7,110.41,7.75,9.21
17.298000,-82.0000,7,110.41,7.75,9.21
17.308000,-83.5000,7,110.41,7.75,9.21
17.318000,-81.6250,7,110.41,7.75,9.21
17.328000,-79.2500,7,110.41,7.75,9.21
17.338000,-77.3750,7,110.41,7.75,9.21
17.348000,-75.5000,7,110.41,7.75,9.21
17.358000,-76.5000,7,110.41,7.75,9.21
17.368000,-79.7500,7,110.41,7.75,9.21
17.378000,-81.2500,7,110.41,7.75,9.21
17.388000,-87.0000,7,110.41,7.75,9.21
17.398000,-87.8750,7,110.41,7.75,9.21
17.408000,-87.7500,7,110.41,7.75,9.21
17.418000,-86.8750,7,110.41,7.75,9.21
17.428000,-86.5000,7,110.41,7.75,9.21
17.438000,-85.2500,7,110.41,7.75,9.21
17.448000,-86.6250,7,110.41,7.75,9.21
17.458000,-88.0000,7,110.41,7.75,9.21
17.468000,-89.0000,7,110.41,7.75,9.21
17.478000,-89.1250,7,110.41,7.75,9.21
17.488000,-89.2500,7,110.41,7.75,9.21
17.498000,-73.7500,7,110.41,7.75,9.21
17.508000,-82.1250,7,110.41,7.75,9.21
17.518000,-84.2500,7,110.41,7.75,9.21
17.528000,-75.7500,7,110.41,7.75,9.21
17.538000,-76.5000,7,110.41,7.75,9.21
17.548000,-76.7500,7,110.41,7.75,9.21
17.558000,-84.6250,7,110.41,7.75,9.21
17.568000,-87.6250,7,110.41,7.75,9.21
17.578000,-88.0000,7,110.41,7.75,9.21
17.588000,-88.5000,7,110.41,7.75,9.21
17.598000,-86.7500,7,110.41,7.75,9.21
17.608000,-88.8750,7,110.41,7.75,9.21
17.618000,-88.3750,7,110.41,7.75,9.21
17.628000,-87.7500,7,110.41,7.75,9.21
17.638000,-86.8750,7,110.41,7.75,9.21
17.648000,-87.8750,7,110.41,7.75,9.21
17.658000,-86.1250,7,110.41,7.75,9.21
17.668000,-86.7500,7,110.41,7.75,9.21
17.678000,-87.2500,7,110.41,7.75,9.21
17.688000,-88.5000,7,110.41,7.75,9.21
17.698000,-88.0000,7,110.41,7.75,9.21
17.708000,-88.0000,7,110.41,7.75,9.21
17.718000,-87.7500,7,110.41,7.75,9.21
17.728000,-88.0000,7,110.41,7.75,9.21
17.738000,-88.0000,7,110.41,7.75,9.21
17.748000,-75.1250,7,110.41,7.75,9.21
17.758000,-99.6250,7,110.41,7.75,9.21
17.768000,-92.1250,7,110.41,7.75,9.21
17.778000,-83.0000,7,110.41,7.75,9.21
17.788000,-82.2500,7,110.41,7.75,9.21
17.798000,-84.3750,7,110.41,7.75,9.21
17.808000,-84.7500,7,110.41,7.75,9.21
17.818000,-83.8750,7,110.41,7.75,9.21
17.828000,-82.8750,7,110.41,7.75,9.21
17.838000,-84.5000,7,110.41,7.75,9.21
17.848000,-82.1250,7,110.41,7.75,9.21
17.858000,-82.6250,7,110.41,7.75,9.21
17.868000,-80.2500,7,110.41,7.75,9.21
17.878000,-80.8750,7,110.41,7.75,9.21
17.888000,-78.8750,7,110.41,7.75,9.21
17.898000,-78.7500,7,110.41,7.75,9.21
17.908000,-76.2500,7,110.41,7.75,9.21
17.918000,-77.2500,7,110.41,7.75,9.21
17.928000,-75.2500,7,110.41,7.75,9.21
17.938000,-77.0000,7,110.41,7.75,9.21
17.948000,-77.3750,7,110.41,7.75,9.21
17.958000,-79.8750,7,110.41,7.75,9.21
17.968000,-82.3750,7,110.41,7.75,9.21
17.978000,-84.1250,7,110.41,7.75,9.21
17.988000,-85.7500,7,110.41,7.75,9.21
17.998000,-86.7500,7,110.41,7.75,9.21
18.008000,-87.5000,7,110.41,7.75,9.21
18.018000,-87.2500,7,110.41,7.75,9.21
18.028000,-87.6250,7,110.41,7.75,9.21
18.038000,-87.7500,7,110.41,7.75,9.21
18.048000,-87.7500,7,110.41,7.75,9.21
18.058000,-87.7500,7,110.41,7.75,9.21
18.068000,-87.7500,7,110.41,7.75,9.21
18.078000,-87.2500,7,110.41,7.75,9.21
18.088000,-87.8750,7,110.41,7.75,9.21
18.098000,-86.3750,7,110.41,7.75,9.21
18.108000,-83.1250,7,110.41,7.75,9.21
18.118000,-84.8750,7,110.41,7.75,9.21
18.128000,-87.0000,7,110.41,7.75,9.21
18.138000,-84.3750,7,110.41,7.75,9.21
18.148000,-84.8750,7,110.41,7.75,9.21
18.158000,-83.1250,7,110.41,7.75,9.21
18.168000,-85.1250,7,110.41,7.75,9.21
18.178000,-87.8750,7,110.41,7.75,9.21
18.188000,-89.2500,7,110.41,7.75,9.21
18.198000,-87.7500,7,110.41,7.75,9.21
18.208000,-88.1250,7,110.41,7.75,9.21
18.218000,-86.3750,9,73.50,8.60,20.13
18.228000,-87.3750,9,73.50,8.60,20.13
18.238000,-85.8750,9,73.50,8.60,20.13
18.248000,-88.2500,9,73.50,8.60,20.13
18.258000,-87.0000,9,73.50,8.60,20.13
18.268000,-88.1250,9,73.50,8.60,20.13
18.278000,-88.2500,9,73.50,8.60,20.13
18.288000,-89.5000,9,73.50,8.60,20.13
18.298000,-88.2500,9,73.50,8.60,20.13
18.308000,-89.7500,9,73.50,8.60,20.13
18.318000,-88.0000,9,73.50,8.60,20.13
18.328000,-88.8750,9,73.50,8.60,20.13
18.338000,-87.8750,9,73.50,8.60,20.13
18.348000,-89.1250,9,73.50,8.60,20.13
18.358000,-83.2500,9,73.50,8.60,20.13
18.368000,-75.2500,9,73.50,8.60,20.13
18.378000,-76.1250,9,73.50,8.60,20.13
18.388000,-92.1250,9,73.50,8.60,20.13
18.398000,-101.3750,9,73.50,8.60,20.13
18.408000,-88.3750,9,73.50,8.60,20.13
18.418000,-82.1250,9,73.50,8.60,20.13
18.428000,-85.3750,9,73.50,8.60,20.13
18.438000,-84.3750,9,73.50,8.60,20.13
18.448000,-86.1250,9,73.50,8.60,20.13
18.458000,-83.5000,9,73.50,8.60,20.13
18.468000,-85.6250,9,73.50,8.60,20.13
18.478000,-83.1250,9,73.50,8.60,20.13
18.488000,-85.0000,9,73.50,8.60,20.13
18.498000,-82.1250,9,73.50,8.60,20.13
18.508000,-83.2500,9,73.50,8.60,20.13
18.518000,-80.7500,9,73.50,8.60,20.13
18.528000,-81.7500,9,73.50,8.60,20.13
18.538000,-79.0000,9,73.50,8.60,20.13
18.548000,-79.6250,9,73.50,8.60,20.13
18.558000,-77.2500,9,73.50,8.60,20.13
18.568000,-77.7500,9,73.50,8.60,20.13
18.578000,-75.5000,9,73.50,8.60,20.13
18.588000,-77.8750,9,73.50,8.60,20.13
18.598000,-77.1250,9,73.50,8.60,20.13
18.608000,-80.2500,9,73.50,8.60,20.13
18.618000,-81.0000,9,73.50,8.60,20.13
18.628000,-85.5000,9,73.50,8.60,20.13
18.638000,-84.7500,9,73.50,8.60,20.13
18.648000,-88.1250,9,73.50,8.60,20.13
18.658000,-86.6250,9,73.50,8.60,20.13
18.668000,-88.8750,9,73.50,8.60,20.13
18.678000,-87.1250,9,73.50,8.60,20.13
18.688000,-89.1250,9,73.50,8.60,20.13
18.698000,-87.5000,9,73.50,8.60,20.13
18.708000,-88.8750,9,73.50,8.60,20.13
18.718000,-87.8750,9,73.50,8.60,20.13
18.728000,-88.7500,9,73.50,8.60,20.13
18.738000,-86.8750,9,73.50,8.60,20.13
18.748000,-88.2500,9,73.50,8.60,20.13
18.758000,-86.7500,9,73.50,8.60,20.13
18.768000,-88.2500,9,73.50,8.60,20.13
18.778000,-86.3750,9,73.50,8.60,20.13
18.788000,-87.6250,9,73.50,8.60,20.13
18.798000,-86.3750,9,73.50,8.60,20.13
18.808000,-87.8750,9,73.50,8.60,20.13
18.818000,-86.6250,9,73.50,8.60,20.13
18.828000,-88.1250,9,73.50,8.60,20.13
18.838000,-87.3750,9,73.50,8.60,20.13
18.848000,-88.7500,9,73.50,8.60,20.13
18.858000,-86.8750,9,73.50,8.60,20.13
18.868000,-88.1250,9,73.50,8.60,20.13
18.878000,-86.7500,9,73.50,8.60,20.13
18.888000,-88.0000,9,73.50,8.60,20.13
18.898000,-86.5000,9,73.50,8.60,20.13
18.908000,-88.2500,9,73.50,8.60,20.13
18.918000,-86.7500,9,73.50,8.60,20.13
18.928000,-88.0000,9,73.50,8.60,20.13
18.938000,-86.5000,9,73.50,8.60,20.13
18.948000,-88.1250,9,73.50,8.60,20.13
18.958000,-86.6250,9,73.50,8.60,20.13
18.968000,-87.0000,9,73.50,8.60,20.13
18.978000,-86.3750,9,73.50,8.60,20.13
18.988000,-87.2500,9,73.50,8.60,20.13
18.998000,-86.3750,9,73.50,8.60,20.13
19.008000,-86.8750,9,73.50,8.60,20.13
19.018000,-85.8750,9,73.50,8.60,20.13
19.028000,-86.5000,9,73.50,8.60,20.13
19.038000,-85.0000,9,73.50,8.60,20.13
19.048000,-85.6250,9,73.50,8.60,20.13
19.058000,-84.3750,9,73.50,8.60,20.13
19.068000,-86.1250,9,73.50,8.60,20.13
19.078000,-85.6250,9,73.50,8.60,20.13
19.088000,-85.7500,9,73.50,8.60,20.13
19.098000,-86.2500,9,73.50,8.60,20.13
19.108000,-87.1250,9,73.50,8.60,20.13
19.118000,-86.6250,9,73.50,8.60,20.13
19.128000,-87.0000,9,73.50,8.60,20.13
19.138000,-86.3750,9,73.50,8.60,20.13
19.148000,-86.6250,9,73.50,8.60,20.13
19.158000,-86.6250,9,73.50,8.60,20.13
19.168000,-87.1250,9,73.50,8.60,20.13
19.178000,-80.5000,9,73.50,8.60,20.13
19.188000,-70.3750,9,73.50,8.60,20.13
19.198000,-74.3750,9,73.50,8.60,20.13
19.208000,-90.2500,9,73.50,8.60,20.13
19.218000,-100.5000,9,73.50,8.60,20.13
19.228000,-85.0000,9,73.50,8.60,20.13
19.238000,-80.8750,9,73.50,8.60,20.13
19.248000,-82.7500,9,73.50,8.60,20.13
19.258000,-83.2500,9,73.50,8.60,20.13
19.268000,-83.2500,9,73.50,8.60,20.13
19.278000,-82.7500,9,73.50,8.60,20.13
19.288000,-82.8750,9,73.50,8.60,20.13
19.298000,-81.8750,9,73.50,8.60,20.13
19.308000,-81.5000,9,73.50,8.60,20.13
19.318000,-80.2500,9,73.50,8.60,20.13
19.328000,-79.7500,9,73.50,8.60,20.13
19.338000,-79.3750,9,73.50,8.60,20.13
19.348000,-78.6250,9,73.50,8.60,20.13
19.358000,-77.3750,9,73.50,8.60,20.13
19.368000,-76.3750,9,73.50,8.60,20.13
19.378000,-75.0000,9,73.50,8.60,20.13
19.388000,-73.3750,9,73.50,8.60,20.13
19.398000,-73.7500,9,73.50,8.60,20.13
19.408000,-73.3750,9,73.50,8.60,20.13
19.418000,-74.0000,9,73.50,8.60,20.13
19.428000,-76.2500,9,73.50,8.60,20.13
19.438000,-78.5000,9,73.50,8.60,20.13
19.448000,-80.6250,9,73.50,8.60,20.13
19.458000,-83.1250,9,73.50,8.60,20.13
19.468000,-84.5000,9,73.50,8.60,20.13
19.478000,-85.3750,9,73.50,8.60,20.13
19.488000,-85.6250,9,73.50,8.60,20.13
19.498000,-86.5000,9,73.50,8.60,20.13
19.508000,-86.1250,9,73.50,8.60,20.13
19.518000,-86.7500,9,73.50,8.60,20.13
19.528000,-85.8750,9,73.50,8.60,20.13
19.538000,-86.1250,9,73.50,8.60,20.13
19.548000,-85.6250,9,73.50,8.60,20.13
19.558000,-86.1250,9,73.50,8.60,20.13
19.568000,-85.0000,9,73.50,8.60,20.13
19.578000,-86.1250,9,73.50,8.60,20.13
19.588000,-85.2500,9,73.50,8.60,20.13
19.598000,-85.6250,9,73.50,8.60,20.13
19.608000,-84.7500,9,73.50,8.60,20.13
19.618000,-85.3750,9,73.50,8.60,20.13
19.628000,-85.0000,9,73.50,8.60,20.13
19.638000,-85.3750,9,73.50,8.60,20.13
19.648000,-85.6250,9,73.50,8.60,20.13
19.658000,-86.5000,9,73.50,8.60,20.13
19.668000,-86.1250,9,73.50,8.60,20.13
19.678000,-86.6250,9,73.50,8.60,20.13
19.688000,-86.0000,9,73.50,8.60,20.13
19.698000,-86.3750,9,73.50,8.60,20.13
19.708000,-86.3750,9,73.50,8.60,20.13
19.718000,-86.7500,9,73.50,8.60,20.13
19.728000,-86.2500,9,73.50,8.60,20.13
19.738000,-87.0000,9,73.50,8.60,20.13
19.748000,-86.3750,9,73.50,8.60,20.13
19.758000,-86.7500,9,73.50,8.60,20.13
19.768000,-86.3750,9,73.50,8.60,20.13
19.778000,-86.6250,9,73.50,8.60,20.13
19.788000,-86.0000,9,73.50,8.60,20.13
19.798000,-87.5000,9,73.50,8.60,20.13
19.808000,-85.8750,9,73.50,8.60,20.13
19.818000,-87.1250,9,73.50,8.60,20.13
19.828000,-85.5000,9,73.50,8.60,20.13
19.838000,-87.1250,9,73.50,8.60,20.13
19.848000,-85.7500,9,73.50,8.60,20.13
19.858000,-85.8750,9,73.50,8.60,20.13
19.868000,-85.0000,9,73.50,8.60,20.13
19.878000,-86.2500,9,73.50,8.60,20.13
19.888000,-85.0000,9,73.50,8.60,20.13
19.898000,-84.8750,9,73.50,8.60,20.13
19.908000,-83.3750,9,73.50,8.60,20.13
19.918000,-85.1250,9,73.50,8.60,20.13
19.928000,-84.8750,9,73.50,8.60,20.13
19.938000,-87.0000,9,73.50,8.60,20.13
19.948000,-86.0000,9,73.50,8.60,20.13
19.958000,-86.7500,9,73.50,8.60,20.13
19.968000,-85.6250,9,73.50,8.60,20.13
19.978000,-86.8750,9,73.50,8.60,20.13
19.988000,-85.7500,9,73.50,8.60,20.13
19.998000,-87.3750,9,73.50,8.60,20.13
20.008000,-86.5000,9,73.50,8.60,20.13
20.018000,-72.7500,9,73.50,8.60,20.13
20.028000,-89.0000,9,73.50,8.60,20.13
20.038000,-84.0000,9,73.50,8.60,20.13
20.048000,-81.1250,9,73.50,8.60,20.13
20.058000,-77.8750,9,73.50,8.60,20.13
20.068000,-75.0000,9,73.50,8.60,20.13
20.078000,-82.2500,9,73.50,8.60,20.13
20.088000,-85.8750,9,73.50,8.60,20.13
20.098000,-86.5000,9,73.50,8.60,20.13
20.108000,-88.2500,9,73.50,8.60,20.13
20.118000,-86.8750,9,73.50,8.60,20.13
20.128000,-86.5000,9,73.50,8.60,20.13
20.138000,-86.3750,9,73.50,8.60,20.13
20.148000,-86.2500,9,73.50,8.60,20.13
20.158000,-86.5000,9,73.50,8.60,20.13
20.168000,-86.6250,9,73.50,8.60,20.13
20.178000,-86.3750,9,73.50,8.60,20.13
20.188000,-86.6250,9,73.50,8.60,20.13
20.198000,-86.2500,9,73.50,8.60,20.13
20.208000,-87.0000,9,73.50,8.60,20.13
20.218000,-88.1250,9,73.50,8.60,20.13
20.228000,-87.2500,9,73.50,8.60,20.13
20.238000,-86.2500,9,73.50,8.60,20.13
20.248000,-86.1250,9,73.50,8.60,20.13
20.258000,-87.1250,9,73.50,8.60,20.13
20.268000,-82.6250,9,73.50,8.60,20.13
20.278000,-98.8750,9,73.50,8.60,20.13
20.288000,-81.8750,9,73.50,8.60,20.13
20.298000,-84.2500,9,73.50,8.60,20.13
20.308000,-83.2500,9,73.50,8.60,20.13
20.318000,-82.8750,9,73.50,8.60,20.13
20.328000,-81.7500,9,73.50,8.60,20.13
20.338000,-79.5000,9,73.50,8.60,20.13
20.348000,-77.1250,9,73.50,8.60,20.13
20.358000,-78.0000,9,73.50,8.60,20.13
20.368000,-73.7500,9,73.50,8.60,20.13
20.378000,-75.0000,9,73.50,8.60,20.13
20.388000,-72.6250,9,73.50,8.60,20.13
20.398000,-74.1250,9,73.50,8.60,20.13
20.408000,-73.0000,9,73.50,8.60,20.13
20.418000,-76.7500,9,73.50,8.60,20.13
20.428000,-77.1250,9,73.50,8.60,20.13
20.438000,-82.0000,9,73.50,8.60,20.13
20.448000,-86.0000,9,73.50,8.60,20.13
20.458000,-87.5000,9,73.50,8.60,20.13
20.468000,-87.2500,9,73.50,8.60,20.13
20.478000,-86.0000,9,73.50,8.60,20.13
20.488000,-86.0000,9,73.50,8.60,20.13
20.498000,-85.8750,9,73.50,8.60,20.13
20.508000,-85.1250,9,73.50,8.60,20.13
20.518000,-85.7500,9,73.50,8.60,20.13
20.528000,-85.7500,9,73.50,8.60,20.13
20.538000,-85.0000,9,73.50,8.60,20.13
20.548000,-85.8750,9,73.50,8.60,20.13
20.558000,-85.8750,9,73.50,8.60,20.13
20.568000,-87.6250,9,73.50,8.60,20.13
20.578000,-85.3750,9,73.50,8.60,20.13
20.588000,-70.7500,9,73.50,8.60,20.13
20.598000,-99.7500,9,73.50,8.60,20.13
20.608000,-83.1250,9,73.50,8.60,20.13
20.618000,-84.7500,9,73.50,8.60,20.13
20.628000,-84.8750,9,73.50,8.60,20.13
20.638000,-84.8750,9,73.50,8.60,20.13
20.648000,-82.5000,9,73.50,8.60,20.13
20.658000,-79.5000,9,73.50,8.60,20.13
20.668000,-74.7500,9,73.50,8.60,20.13
20.678000,-75.1250,9,73.50,8.60,20.13
20.688000,-74.1250,9,73.50,8.60,20.13
20.698000,-75.1250,9,73.50,8.60,20.13
20.708000,-75.2500,9,73.50,8.60,20.13
20.718000,-78.2500,9,73.50,8.60,20.13
20.728000,-79.8750,9,73.50,8.60,20.13
20.738000,-87.6250,9,73.50,8.60,20.13
20.748000,-88.8750,9,73.50,8.60,20.13
20.758000,-88.0000,9,73.50,8.60,20.13
20.768000,-88.8750,9,73.50,8.60,20.13
20.778000,-89.0000,9,73.50,8.60,20.13
20.788000,-89.1250,9,73.50,8.60,20.13
20.798000,-89.5000,9,73.50,8.60,20.13
20.808000,-90.3750,9,73.50,8.60,20.13
20.818000,-89.7500,9,73.50,8.60,20.13
20.828000,-89.6250,9,73.50,8.60,20.13
20.838000,-88.8750,9,73.50,8.60,20.13
20.848000,-89.0000,9,73.50,8.60,20.13
20.858000,-89.7500,9,73.50,8.60,20.13
20.868000,-88.7500,9,73.50,8.60,20.13
20.878000,-87.5000,9,73.50,8.60,20.13
20.888000,-89.1250,9,73.50,8.60,20.13
20.898000,-90.2500,9,73.50,8.60,20.13
20.908000,-89.3750,9,73.50,8.60,20.13
20.918000,-90.0000,9,73.50,8.60,20.13
20.928000,-88.8750,9,73.50,8.60,20.13
20.938000,-75.1250,9,73.50,8.60,20.13
20.948000,-95.3750,9,73.50,8.60,20.13
20.958000,-87.0000,9,73.50,8.60,20.13
20.968000,-76.8750,9,73.50,8.60,20.13
20.978000,-74.3750,9,73.50,8.60,20.13
20.988000,-73.3750,9,73.50,8.60,20.13
20.998000,-78.5000,9,73.50,8.60,20.13
21.008000,-80.6250,9,73.50,8.60,20.13
21.018000,-86.5000,9,73.50,8.60,20.13
21.028000,-88.3750,9,73.50,8.60,20.13
21.038000,-89.0000,9,73.50,8.60,20.13
21.048000,-88.7500,9,73.50,8.60,20.13
21.058000,-88.1250,9,73.50,8.60,20.13
21.068000,-89.3750,9,73.50,8.60,20.13
21.078000,-89.7500,9,73.50,8.60,20.13
21.088000,-90.3750,9,73.50,8.60,20.13
21.098000,-89.8750,9,73.50,8.60,20.13
21.108000,-89.0000,9,73.50,8.60,20.13
21.118000,-89.0000,9,73.50,8.60,20.13
21.128000,-88.7500,9,73.50,8.60,20.13
21.138000,-89.8750,9,73.50,8.60,20.13
21.148000,-87.5000,9,73.50,8.60,20.13
21.158000,-86.7500,9,73.50,8.60,20.13
21.168000,-88.0000,9,73.50,8.60,20.13
21.178000,-88.5000,9,73.50,8.60,20.13
21.188000,-85.7500,9,73.50,8.60,20.13
21.198000,-84.3750,9,73.50,8.60,20.13
21.208000,-84.6250,9,73.50,8.60,20.13
21.218000,-83.2500,9,73.50,8.60,20.13
21.228000,-81.2500,9,73.50,8.60,20.13
21.238000,-78.0000,9,73.50,8.60,20.13
21.248000,-74.0000,9,73.50,8.60,20.13
21.258000,-73.5000,9,73.50,8.60,20.13
21.268000,-70.0000,9,73.50,8.60,20.13
21.278000,-71.8750,9,73.50,8.60,20.13
21.288000,-85.0000,9,73.50,8.60,20.13
21.298000,-87.2500,9,73.50,8.60,20.13
21.308000,-86.3750,9,73.50,8.60,20.13
21.318000,-86.5000,9,73.50,8.60,20.13
21.328000,-85.7500,9,73.50,8.60,20.13
21.338000,-86.5000,9,73.50,8.60,20.13
21.348000,-85.7500,9,73.50,8.60,20.13
21.358000,-87.6250,9,73.50,8.60,20.13
21.368000,-86.2500,9,73.50,8.60,20.13
21.378000,-86.1250,9,73.50,8.60,20.13
21.388000,-86.6250,9,73.50,8.60,20.13
21.398000,-85.0000,9,73.50,8.60,20.13
21.408000,-85.1250,9,73.50,8.60,20.13
21.418000,-85.3750,9,73.50,8.60,20.13
21.428000,-89.5000,9,73.50,8.60,20.13
21.438000,-87.3750,9,73.50,8.60,20.13
21.448000,-66.8750,9,73.50,8.60,20.13
21.458000,-84.1250,9,73.50,8.60,20.13
21.468000,-81.2500,9,73.50,8.60,20.13
21.478000,-80.8750,9,73.50,8.60,20.13
21.488000,-76.2500,9,73.50,8.60,20.13
21.498000,-71.6250,9,73.50,8.60,20.13
21.508000,-67.6250,9,73.50,8.60,20.13
21.518000,-68.3750,9,73.50,8.60,20.13
21.528000,-67.3750,9,73.50,8.60,20.13
21.538000,-70.6250,9,73.50,8.60,20.13
21.548000,-72.3750,9,73.50,8.60,20.13
21.558000,-89.2500,9,73.50,8.60,20.13
21.568000,-88.7500,9,73.50,8.60,20.13
21.578000,-88.8750,9,73.50,8.60,20.13
21.588000,-88.6250,9,73.50,8.60,20.13
21.598000,-88.1250,9,73.50,8.60,20.13
21.608000,-88.7500,9,73.50,8.60,20.13
21.618000,-88.0000,9,73.50,8.60,20.13
21.628000,-87.0000,9,73.50,8.60,20.13
21.638000,-88.2500,9,73.50,8.60,20.13
21.648000,-86.6250,9,73.50,8.60,20.13
21.658000,-88.6250,9,73.50,8.60,20.13
21.668000,-87.1250,9,73.50,8.60,20.13
21.678000,-88.6250,9,73.50,8.60,20.13
21.688000,-87.1250,9,73.50,8.60,20.13
21.698000,-88.5000,9,73.50,8.60,20.13
21.708000,-88.2500,9,73.50,8.60,20.13
21.718000,-88.5000,9,73.50,8.60,20.13
21.728000,-89.0000,9,73.50,8.60,20.13
21.738000,-88.2500,9,73.50,8.60,20.13
21.748000,-88.8750,9,73.50,8.60,20.13
21.758000,-87.8750,9,73.50,8.60,20.13
21.768000,-89.2500,9,73.50,8.60,20.13
21.778000,-87.2500,9,73.50,8.60,20.13
21.788000,-88.3750,9,73.50,8.60,20.13
21.798000,-86.8750,9,73.50,8.60,20.13
21.808000,-87.6250,9,73.50,8.60,20.13
21.818000,-85.2500,9,73.50,8.60,20.13
21.828000,-86.7500,9,73.50,8.60,20.13
21.838000,-86.1250,9,73.50,8.60,20.13
21.848000,-88.2500,9,73.50,8.60,20.13
21.858000,-86.3750,9,73.50,8.60,20.13
21.868000,-89.0000,9,73.50,8.60,20.13
21.878000,-86.8750,9,73.50,8.60,20.13
21.888000,-89.0000,9,73.50,8.60,20.13
21.898000,-85.7500,9,73.50,8.60,20.13
21.908000,-88.5000,9,73.50,8.60,20.13
21.918000,-83.2500,9,73.50,8.60,20.13
21.928000,-68.2500,9,73.50,8.60,20.13
21.938000,-73.7500,9,73.50,8.60,20.13
21.948000,-94.5000,9,73.50,8.60,20.13
21.958000,-102.6250,9,73.50,8.60,20.13
21.968000,-80.2500,9,73.50,8.60,20.13
21.978000,-82.5000,9,73.50,8.60,20.13
21.988000,-80.3750,9,73.50,8.60,20.13
21.998000,-81.5000,9,73.50,8.60,20.13
22.008000,-81.1250,9,73.50,8.60,20.13
22.018000,-85.6250,9,73.50,8.60,20.13
22.028000,-84.6250,9,73.50,8.60,20.13
22.038000,-83.8750,9,73.50,8.60,20.13
22.048000,-77.7500,9,73.50,8.60,20.13
22.058000,-78.5000,9,73.50,8.60,20.13
22.068000,-77.6250,9,73.50,8.60,20.13
22.078000,-81.6250,9,73.50,8.60,20.13
22.088000,-80.0000,9,73.50,8.60,20.13
22.098000,-79.1250,9,73.50,8.60,20.13
22.108000,-77.3750,9,73.50,8.60,20.13
22.118000,-76.2500,11,70.48,9.12,6.51
22.128000,-74.0000,11,70.48,9.12,6.51
22.138000,-73.7500,11,70.48,9.12,6.51
22.148000,-74.5000,11,70.48,9.12,6.51
22.158000,-75.2500,11,70.48,9.12,6.51
22.168000,-78.0000,11,70.48,9.12,6.51
22.178000,-80.1250,11,70.48,9.12,6.51
22.188000,-83.2500,11,70.48,9.12,6.51
22.198000,-85.5000,11,70.48,9.12,6.51
22.208000,-86.3750,11,70.48,9.12,6.51
22.218000,-87.6250,11,70.48,9.12,6.51
22.228000,-87.7500,11,70.48,9.12,6.51
22.238000,-88.3750,11,70.48,9.12,6.51
22.248000,-88.2500,11,70.48,9.12,6.51
22.258000,-88.5000,11,70.48,9.12,6.51
22.268000,-88.7500,11,70.48,9.12,6.51
22.278000,-88.1250,11,70.48,9.12,6.51
22.288000,-87.8750,11,70.48,9.12,6.51
22.298000,-87.2500,11,70.48,9.12,6.51
22.308000,-87.8750,11,70.48,9.12,6.51
22.318000,-87.0000,11,70.48,9.12,6.51
22.328000,-88.1250,11,70.48,9.12,6.51
22.338000,-87.0000,11,70.48,9.12,6.51
22.348000,-86.7500,11,70.48,9.12,6.51
22.358000,-87.1250,11,70.48,9.12,6.51
22.368000,-87.1250,11,70.48,9.12,6.51
22.378000,-87.5000,11,70.48,9.12,6.51
22.388000,-87.8750,11,70.48,9.12,6.51
22.398000,-87.8750,11,70.48,9.12,6.51
22.408000,-88.1250,11,70.48,9.12,6.51
22.418000,-87.2500,11,70.48,9.12,6.51
22.428000,-88.1250,11,70.48,9.12,6.51
22.438000,-87.3750,11,70.48,9.12,6.51
22.448000,-88.0000,11,70.48,9.12,6.51
22.458000,-87.2500,11,70.48,9.12,6.51
22.468000,-88.1250,11,70.48,9.12,6.51
22.478000,-87.5000,11,70.48,9.12,6.51
22.488000,-86.8750,11,70.48,9.12,6.51
22.498000,-86.8750,11,70.48,9.12,6.51
22.508000,-86.2500,11,70.48,9.12,6.51
22.518000,-86.1250,11,70.48,9.12,6.51
22.528000,-88.0000,11,70.48,9.12,6.51
22.538000,-87.0000,11,70.48,9.12,6.51
22.548000,-89.0000,11,70.48,9.12,6.51
22.558000,-88.5000,11,70.48,9.12,6.51
22.568000,-88.7500,11,70.48,9.12,6.51
22.578000,-88.2500,11,70.48,9.12,6.51
22.588000,-89.5000,11,70.48,9.12,6.51
22.598000,-88.6250,11,70.48,9.12,6.51
22.608000,-89.2500,11,70.48,9.12,6.51
22.618000,-88.0000,11,70.48,9.12,6.51
22.628000,-84.3750,11,70.48,9.12,6.51
22.638000,-73.6250,11,70.48,9.12,6.51
22.648000,-75.7500,11,70.48,9.12,6.51
22.658000,-87.8750,11,70.48,9.12,6.51
22.668000,-103.8750,11,70.48,9.12,6.51
22.678000,-89.1250,11,70.48,9.12,6.51
22.688000,-83.7500,11,70.48,9.12,6.51
22.698000,-83.7500,11,70.48,9.12,6.51
22.708000,-86.0000,11,70.48,9.12,6.51
22.718000,-84.8750,11,70.48,9.12,6.51
22.728000,-86.1250,11,70.48,9.12,6.51
22.738000,-84.0000,11,70.48,9.12,6.51
22.748000,-85.0000,11,70.48,9.12,6.51
22.758000,-83.5000,11,70.48,9.12,6.51
22.768000,-83.7500,11,70.48,9.12,6.51
22.778000,-81.6250,11,70.48,9.12,6.51
22.788000,-82.8750,11,70.48,9.12,6.51
22.798000,-80.2500,11,70.48,9.12,6.51
22.808000,-80.3750,11,70.48,9.12,6.51
22.818000,-77.7500,11,70.48,9.12,6.51
22.828000,-77.7500,11,70.48,9.12,6.51
22.838000,-74.8750,11,70.48,9.12,6.51
22.848000,-76.1250,11,70.48,9.12,6.51
22.858000,-74.8750,11,70.48,9.12,6.51
22.868000,-76.3750,11,70.48,9.12,6.51
22.878000,-77.2500,11,70.48,9.12,6.51
22.888000,-81.2500,11,70.48,9.12,6.51
22.898000,-82.2500,11,70.48,9.12,6.51
22.908000,-85.2500,11,70.48,9.12,6.51
22.918000,-85.5000,11,70.48,9.12,6.51
22.928000,-87.5000,11,70.48,9.12,6.51
22.938000,-86.8750,11,70.48,9.12,6.51
22.948000,-89.0000,11,70.48,9.12,6.51
22.958000,-87.5000,11,70.48,9.12,6.51
22.968000,-89.2500,11,70.48,9.12,6.51
22.978000,-87.7500,11,70.48,9.12,6.51
22.988000,-89.1250,11,70.48,9.12,6.51
22.998000,-87.6250,11,70.48,9.12,6.51
23.008000,-89.0000,11,70.48,9.12,6.51
23.018000,-87.0000,11,70.48,9.12,6.51
23.028000,-88.7500,11,70.48,9.12,6.51
23.038000,-87.5000,11,70.48,9.12,6.51
23.048000,-89.1250,11,70.48,9.12,6.51
23.058000,-86.8750,11,70.48,9.12,6.51
23.068000,-88.7500,11,70.48,9.12,6.51
23.078000,-86.8750,11,70.48,9.12,6.51
23.088000,-88.3750,11,70.48,9.12,6.51
23.098000,-86.7500,11,70.48,9.12,6.51
23.108000,-88.8750,11,70.48,9.12,6.51
23.118000,-87.2500,11,70.48,9.12,6.51
23.128000,-89.1250,11,70.48,9.12,6.51
23.138000,-87.5000,11,70.48,9.12,6.51
23.148000,-88.8750,11,70.48,9.12,6.51
23.158000,-86.8750,11,70.48,9.12,6.51
23.168000,-88.8750,11,70.48,9.12,6.51
23.178000,-86.1250,11,70.48,9.12,6.51
23.188000,-88.0000,11,70.48,9.12,6.51
23.198000,-86.0000,11,70.48,9.12,6.51
23.208000,-88.3750,11,70.48,9.12,6.51
23.218000,-87.2500,11,70.48,9.12,6.51
23.228000,-88.7500,11,70.48,9.12,6.51
23.238000,-87.5000,11,70.48,9.12,6.51
23.248000,-90.0000,11,70.48,9.12,6.51
23.258000,-88.7500,11,70.48,9.12,6.51
23.268000,-90.3750,11,70.48,9.12,6.51
23.278000,-88.5000,11,70.48,9.12,6.51
23.288000,-90.3750,11,70.48,9.12,6.51
23.298000,-88.7500,11,70.48,9.12,6.51
23.308000,-89.6250,11,70.48,9.12,6.51
23.318000,-84.0000,11,70.48,9.12,6.51
23.328000,-76.2500,11,70.48,9.12,6.51
23.338000,-75.5000,11,70.48,9.12,6.51
23.348000,-90.2500,11,70.48,9.12,6.51
23.358000,-102.0000,11,70.48,9.12,6.51
23.368000,-90.0000,11,70.48,9.12,6.51
23.378000,-82.5000,11,70.48,9.12,6.51
23.388000,-85.8750,11,70.48,9.12,6.51
23.398000,-85.2500,11,70.48,9.12,6.51
23.408000,-86.7500,11,70.48,9.12,6.51
23.418000,-84.7500,11,70.48,9.12,6.51
23.428000,-86.3750,11,70.48,9.12,6.51
23.438000,-84.3750,11,70.48,9.12,6.51
23.448000,-85.5000,11,70.48,9.12,6.51
23.458000,-83.1250,11,70.48,9.12,6.51
23.468000,-84.5000,11,70.48,9.12,6.51
23.478000,-81.7500,11,70.48,9.12,6.51
23.488000,-83.0000,11,70.48,9.12,6.51
23.498000,-79.5000,11,70.48,9.12,6.51
23.508000,-80.1250,11,70.48,9.12,6.51
23.518000,-77.3750,11,70.48,9.12,6.51
23.528000,-77.7500,11,70.48,9.12,6.51
23.538000,-75.2500,11,70.48,9.12,6.51
23.548000,-77.1250,11,70.48,9.12,6.51
23.558000,-76.3750,11,70.48,9.12,6.51
23.568000,-80.2500,11,70.48,9.12,6.51
23.578000,-81.0000,11,70.48,9.12,6.51
23.588000,-85.0000,11,70.48,9.12,6.51
23.598000,-85.2500,11,70.48,9.12,6.51
23.608000,-88.1250,11,70.48,9.12,6.51
23.618000,-87.5000,11,70.48,9.12,6.51
23.628000,-88.6250,11,70.48,9.12,6.51
23.638000,-88.1250,11,70.48,9.12,6.51
23.648000,-89.5000,11,70.48,9.12,6.51
23.658000,-88.3750,11,70.48,9.12,6.51
23.668000,-89.3750,11,70.48,9.12,6.51
23.678000,-88.1250,11,70.48,9.12,6.51
23.688000,-88.1250,11,70.48,9.12,6.51
23.698000,-88.0000,11,70.48,9.12,6.51
23.708000,-89.1250,11,70.48,9.12,6.51
23.718000,-86.7500,11,70.48,9.12,6.51
23.728000,-88.0000,11,70.48,9.12,6.51
23.738000,-87.0000,11,70.48,9.12,6.51
23.748000,-88.1250,11,70.48,9.12,6.51
23.758000,-87.0000,11,70.48,9.12,6.51
23.768000,-88.2500,11,70.48,9.12,6.51
23.778000,-88.0000,11,70.48,9.12,6.51
23.788000,-88.0000,11,70.48,9.12,6.51
23.798000,-86.3750,11,70.48,9.12,6.51
23.808000,-88.1250,11,70.48,9.12,6.51
23.818000,-87.8750,11,70.48,9.12,6.51
23.828000,-87.8750,11,70.48,9.12,6.51
23.838000,-87.6250,11,70.48,9.12,6.51
23.848000,-87.8750,11,70.48,9.12,6.51
23.858000,-87.3750,11,70.48,9.12,6.51
23.868000,-87.5000,11,70.48,9.12,6.51
23.878000,-86.7500,11,70.48,9.12,6.51
23.888000,-88.1250,11,70.48,9.12,6.51
23.898000,-88.8750,11,70.48,9.12,6.51
23.908000,-74.1250,11,70.48,9.12,6.51
23.918000,-94.2500,11,70.48,9.12,6.51
23.928000,-82.8750,11,70.48,9.12,6.51
23.938000,-81.6250,11,70.48,9.12,6.51
23.948000,-79.8750,11,70.48,9.12,6.51
23.958000,-77.7500,11,70.48,9.12,6.51
23.968000,-76.0000,11,70.48,9.12,6.51
23.978000,-76.7500,11,70.48,9.12,6.51
23.988000,-79.7500,11,70.48,9.12,6.51
23.998000,-81.2500,11,70.48,9.12,6.51
24.008000,-84.0000,11,70.48,9.12,6.51
24.018000,-85.5000,11,70.48,9.12,6.51
24.028000,-86.5000,11,70.48,9.12,6.51
24.038000,-86.8750,11,70.48,9.12,6.51
24.048000,-87.8750,11,70.48,9.12,6.51
24.058000,-87.5000,11,70.48,9.12,6.51
24.068000,-86.5000,11,70.48,9.12,6.51
24.078000,-88.1250,11,70.48,9.12,6.51
24.088000,-87.5000,11,70.48,9.12,6.51
24.098000,-86.6250,11,70.48,9.12,6.51
24.108000,-87.2500,11,70.48,9.12,6.51
24.118000,-101.5000,11,70.48,9.12,6.51
24.128000,-81.1250,11,70.48,9.12,6.51
24.138000,-85.5000,11,70.48,9.12,6.51
24.148000,-83.3750,11,70.48,9.12,6.51
24.158000,-84.6250,11,70.48,9.12,6.51
24.168000,-82.8750,11,70.48,9.12,6.51
24.178000,-79.2500,11,70.48,9.12,6.51
24.188000,-78.3750,11,70.48,9.12,6.51
24.198000,-75.7500,11,70.48,9.12,6.51
24.208000,-76.2500,11,70.48,9.12,6.51
24.218000,-74.1250,11,70.48,9.12,6.51
24.228000,-76.2500,11,70.48,9.12,6.51
24.238000,-75.5000,11,70.48,9.12,6.51
24.248000,-78.7500,11,70.48,9.12,6.51
24.258000,-79.6250,11,70.48,9.12,6.51
24.268000,-83.1250,11,70.48,9.12,6.51
24.278000,-84.0000,11,70.48,9.12,6.51
24.288000,-87.0000,11,70.48,9.12,6.51
24.298000,-87.8750,11,70.48,9.12,6.51
24.308000,-87.0000,11,70.48,9.12,6.51
24.318000,-86.0000,11,70.48,9.12,6.51
24.328000,-87.1250,11,70.48,9.12,6.51
24.338000,-86.8750,11,70.48,9.12,6.51
24.348000,-87.0000,11,70.48,9.12,6.51
24.358000,-86.5000,11,70.48,9.12,6.51
24.368000,-86.6250,11,70.48,9.12,6.51
24.378000,-84.0000,11,70.48,9.12,6.51
24.388000,-71.6250,11,70.48,9.12,6.51
24.398000,-83.5000,11,70.48,9.12,6.51
24.408000,-93.2500,11,70.48,9.12,6.51
24.418000,-81.6250,11,70.48,9.12,6.51
24.428000,-83.0000,11,70.48,9.12,6.51
24.438000,-81.6250,11,70.48,9.12,6.51
24.448000,-77.5000,11,70.48,9.12,6.51
24.458000,-86.2500,11,70.48,9.12,6.51
24.468000,-86.5000,11,70.48,9.12,6.51
24.478000,-85.2500,11,70.48,9.12,6.51
24.488000,-85.3750,11,70.48,9.12,6.51
24.498000,-86.6250,11,70.48,9.12,6.51
24.508000,-86.1250,11,70.48,9.12,6.51
24.518000,-83.8750,11,70.48,9.12,6.51
24.528000,-84.6250,11,70.48,9.12,6.51
24.538000,-85.5000,11,70.48,9.12,6.51
24.548000,-85.1250,11,70.48,9.12,6.51
24.558000,-86.5000,11,70.48,9.12,6.51
24.568000,-87.2500,11,70.48,9.12,6.51
24.578000,-86.0000,11,70.48,9.12,6.51
24.588000,-85.0000,11,70.48,9.12,6.51
24.598000,-72.3750,11,70.48,9.12,6.51
24.608000,-77.7500,11,70.48,9.12,6.51
24.618000,-84.5000,11,70.48,9.12,6.51
24.628000,-81.1250,11,70.48,9.12,6.51
24.638000,-82.5000,11,70.48,9.12,6.51
24.648000,-73.8750,11,70.48,9.12,6.51
24.658000,-76.8750,11,70.48,9.12,6.51
24.668000,-81.7500,11,70.48,9.12,6.51
24.678000,-82.0000,11,70.48,9.12,6.51
24.688000,-85.1250,11,70.48,9.12,6.51
24.698000,-84.7500,11,70.48,9.12,6.51
24.708000,-86.8750,11,70.48,9.12,6.51
24.718000,-85.1250,11,70.48,9.12,6.51
24.728000,-86.0000,11,70.48,9.12,6.51
24.738000,-85.5000,11,70.48,9.12,6.51
24.748000,-85.3750,11,70.48,9.12,6.51
24.758000,-85.6250,11,70.48,9.12,6.51
24.768000,-87.5000,11,70.48,9.12,6.51
24.778000,-86.3750,11,70.48,9.12,6.51
24.788000,-86.8750,11,70.48,9.12,6.51
24.798000,-87.1250,11,70.48,9.12,6.51
24.808000,-85.8750,11,70.48,9.12,6.51
24.818000,-86.2500,11,70.48,9.12,6.51
24.828000,-84.6250,11,70.48,9.12,6.51
24.838000,-86.0000,11,70.48,9.12,6.51
24.848000,-87.0000,11,70.48,9.12,6.51
24.858000,-87.5000,11,70.48,9.12,6.51
24.868000,-87.0000,11,70.48,9.12,6.51
24.878000,-87.7500,11,70.48,9.12,6.51
24.888000,-75.3750,11,70.48,9.12,6.51
24.898000,-104.6250,11,70.48,9.12,6.51
24.908000,-91.3750,11,70.48,9.12,6.51
24.918000,-82.8750,11,70.48,9.12,6.51
24.928000,-85.1250,11,70.48,9.12,6.51
24.938000,-82.7500,11,70.48,9.12,6.51
24.948000,-78.2500,11,70.48,9.12,6.51
24.958000,-73.2500,11,70.48,9.12,6.51
24.968000,-87.7500,11,70.48,9.12,6.51
24.978000,-88.3750,11,70.48,9.12,6.51
24.988000,-87.2500,11,70.48,9.12,6.51
24.998000,-87.0000,11,70.48,9.12,6.51
25.008000,-87.0000,11,70.48,9.12,6.51
25.018000,-86.5000,11,70.48,9.12,6.51
25.028000,-88.5000,11,70.48,9.12,6.51
25.038000,-87.2500,11,70.48,9.12,6.51
25.048000,-88.6250,11,70.48,9.12,6.51
25.058000,-89.7500,11,70.48,9.12,6.51
25.068000,-88.8750,11,70.48,9.12,6.51
25.078000,-89.2500,11,70.48,9.12,6.51
25.088000,-87.8750,11,70.48,9.12,6.51
25.098000,-90.3750,11,70.48,9.12,6.51
25.108000,-88.6250,11,70.48,9.12,6.51
25.118000,-89.2500,11,70.48,9.12,6.51
25.128000,-88.8750,11,70.48,9.12,6.51
25.138000,-84.3750,11,70.48,9.12,6.51
25.148000,-71.5000,11,70.48,9.12,6.51
25.158000,-69.1250,11,70.48,9.12,6.51
25.168000,-88.2500,11,70.48,9.12,6.51
25.178000,-87.2500,11,70.48,9.12,6.51
25.188000,-83.0000,11,70.48,9.12,6.51
25.198000,-77.0000,11,70.48,9.12,6.51
25.208000,-83.8750,11,70.48,9.12,6.51
25.218000,-87.6250,11,70.48,9.12,6.51
25.228000,-90.2500,11,70.48,9.12,6.51
25.238000,-88.5000,11,70.48,9.12,6.51
25.248000,-89.6250,11,70.48,9.12,6.51
25.258000,-88.3750,11,70.48,9.12,6.51
25.268000,-88.7500,11,70.48,9.12,6.51
25.278000,-87.3750,11,70.48,9.12,6.51
25.288000,-87.5000,11,70.48,9.12,6.51
25.298000,-88.1250,11,70.48,9.12,6.51
25.308000,-88.0000,11,70.48,9.12,6.51
25.318000,-89.6250,11,70.48,9.12,6.51
25.328000,-88.0000,11,70.48,9.12,6.51
25.338000,-88.5000,11,70.48,9.12,6.51
25.348000,-89.3750,11,70.48,9.12,6.51
25.358000,-88.2500,11,70.48,9.12,6.51
25.368000,-83.5000,11,70.48,9.12,6.51
25.378000,-71.1250,11,70.48,9.12,6.51
25.388000,-103.3750,11,70.48,9.12,6.51
25.398000,-93.6250,11,70.48,9.12,6.51
25.408000,-84.5000,11,70.48,9.12,6.51
25.418000,-84.2500,11,70.48,9.12,6.51
25.428000,-80.6250,11,70.48,9.12,6.51
25.438000,-76.6250,11,70.48,9.12,6.51
25.448000,-87.0000,11,70.48,9.12,6.51
25.458000,-87.2500,11,70.48,9.12,6.51
25.468000,-87.6250,11,70.48,9.12,6.51
25.478000,-86.8750,11,70.48,9.12,6.51
25.488000,-87.1250,11,70.48,9.12,6.51
25.498000,-87.0000,11,70.48,9.12,6.51
25.508000,-85.8750,11,70.48,9.12,6.51
25.518000,-86.7500,11,70.48,9.12,6.51
25.528000,-85.7500,11,70.48,9.12,6.51
25.538000,-87.2500,11,70.48,9.12,6.51
25.548000,-86.3750,11,70.48,9.12,6.51
25.558000,-86.8750,11,70.48,9.12,6.51
25.568000,-88.0000,11,70.48,9.12,6.51
25.578000,-87.0000,11,70.48,9.12,6.51
25.588000,-88.0000,11,70.48,9.12,6.51
25.598000,-86.3750,11,70.48,9.12,6.51
25.608000,-88.5000,11,70.48,9.12,6.51
25.618000,-86.7500,11,70.48,9.12,6.51
25.628000,-85.8750,11,70.48,9.12,6.51
25.638000,-86.5000,11,70.48,9.12,6.51
25.648000,-85.0000,11,70.48,9.12,6.51
25.658000,-86.7500,11,70.48,9.12,6.51
25.668000,-87.2500,11,70.48,9.12,6.51
25.678000,-87.8750,11,70.48,9.12,6.51
25.688000,-89.2500,11,70.48,9.12,6.51
25.698000,-87.2500,11,70.48,9.12,6.51
25.708000,-89.8750,11,70.48,9.12,6.51
25.718000,-87.8750,11,70.48,9.12,6.51
25.728000,-89.6250,11,70.48,9.12,6.51
25.738000,-88.1250,11,70.48,9.12,6.51
25.748000,-87.7500,11,70.48,9.12,6.51
25.758000,-80.6250,11,70.48,9.12,6.51
25.768000,-68.6250,11,70.48,9.12,6.51
25.778000,-72.3750,11,70.48,9.12,6.51
25.788000,-100.0000,11,70.48,9.12,6.51
25.798000,-100.5000,11,70.48,9.12,6.51
25.808000,-85.7500,11,70.48,9.12,6.51
25.818000,-82.6250,11,70.48,9.12,6.51
25.828000,-84.8750,11,70.48,9.12,6.51
25.838000,-84.3750,11,70.48,9.12,6.51
25.848000,-85.1250,11,70.48,9.12,6.51
25.858000,-83.6250,11,70.48,9.12,6.51
25.868000,-82.6250,11,70.48,9.12,6.51
25.878000,-82.7500,11,70.48,9.12,6.51
25.888000,-79.2500,11,70.48,9.12,6.51
25.898000,-71.7500,11,70.48,9.12,6.51
25.908000,-73.8750,11,70.48,9.12,6.51
25.918000,-72.1250,11,70.48,9.12,6.51
25.928000,-66.7500,11,70.48,9.12,6.51
25.938000,-68.0000,11,70.48,9.12,6.51
25.948000,-72.2500,11,70.48,9.12,6.51
25.958000,-75.0000,11,70.48,9.12,6.51
25.968000,-74.5000,11,70.48,9.12,6.51
25.978000,-76.3750,11,70.48,9.12,6.51
25.988000,-79.0000,11,70.48,9.12,6.51
25.998000,-86.2500,11,70.48,9.12,6.51
26.008000,-87.2500,13,83.12,7.92,14.60
26.018000,-88.3750,13,83.12,7.92,14.60
26.028000,-88.5000,13,83.12,7.92,14.60
26.038000,-89.0000,13,83.12,7.92,14.60
26.048000,-88.8750,13,83.12,7.92,14.60
26.058000,-89.6250,13,83.12,7.92,14.60
26.068000,-89.0000,13,83.12,7.92,14.60
26.078000,-88.8750,13,83.12,7.92,14.60
26.088000,-87.6250,13,83.12,7.92,14.60
26.098000,-88.5000,13,83.12,7.92,14.60
26.108000,-87.2500,13,83.12,7.92,14.60
26.118000,-88.8750,13,83.12,7.92,14.60
26.128000,-87.7500,13,83.12,7.92,14.60
26.138000,-87.7500,13,83.12,7.92,14.60
26.148000,-87.7500,13,83.12,7.92,14.60
26.158000,-88.3750,13,83.12,7.92,14.60
26.168000,-88.5000,13,83.12,7.92,14.60
26.178000,-89.2500,13,83.12,7.92,14.60
26.188000,-88.2500,13,83.12,7.92,14.60
26.198000,-89.5000,13,83.12,7.92,14.60
26.208000,-88.5000,13,83.12,7.92,14.60
26.218000,-90.2500,13,83.12,7.92,14.60
26.228000,-88.7500,13,83.12,7.92,14.60
26.238000,-89.7500,13,83.12,7.92,14.60
26.248000,-88.6250,13,83.12,7.92,14.60
26.258000,-89.6250,13,83.12,7.92,14.60
26.268000,-88.6250,13,83.12,7.92,14.60
26.278000,-89.3750,13,83.12,7.92,14.60
26.288000,-87.6250,13,83.12,7.92,14.60
26.298000,-88.8750,13,83.12,7.92,14.60
26.308000,-86.2500,13,83.12,7.92,14.60
26.318000,-88.0000,13,83.12,7.92,14.60
26.328000,-87.7500,13,83.12,7.92,14.60
26.338000,-89.3750,13,83.12,7.92,14.60
26.348000,-89.1250,13,83.12,7.92,14.60
26.358000,-91.2500,13,83.12,7.92,14.60
26.368000,-89.2500,13,83.12,7.92,14.60
26.378000,-90.7500,13,83.12,7.92,14.60
26.388000,-90.2500,13,83.12,7.92,14.60
26.398000,-90.7500,13,83.12,7.92,14.60
26.408000,-89.0000,13,83.12,7.92,14.60
26.418000,-91.3750,13,83.12,7.92,14.60
26.428000,-86.5000,13,83.12,7.92,14.60
26.438000,-81.1250,13,83.12,7.92,14.60
26.448000,-68.6250,13,83.12,7.92,14.60
26.458000,-77.8750,13,83.12,7.92,14.60
26.468000,-105.5000,13,83.12,7.92,14.60
26.478000,-101.8750,13,83.12,7.92,14.60
26.488000,-88.7500,13,83.12,7.92,14.60
26.498000,-86.8750,13,83.12,7.92,14.60
26.508000,-86.3750,13,83.12,7.92,14.60
26.518000,-87.6250,13,83.12,7.92,14.60
26.528000,-85.2500,13,83.12,7.92,14.60
26.538000,-86.2500,13,83.12,7.92,14.60
26.548000,-83.6250,13,83.12,7.92,14.60
26.558000,-85.1250,13,83.12,7.92,14.60
26.568000,-82.0000,13,83.12,7.92,14.60
26.578000,-82.5000,13,83.12,7.92,14.60
26.588000,-79.5000,13,83.12,7.92,14.60
26.598000,-80.5000,13,83.12,7.92,14.60
26.608000,-76.0000,13,83.12,7.92,14.60
26.618000,-76.3750,13,83.12,7.92,14.60
26.628000,-71.8750,13,83.12,7.92,14.60
26.638000,-72.7500,13,83.12,7.92,14.60
26.648000,-69.7500,13,83.12,7.92,14.60
26.658000,-71.5000,13,83.12,7.92,14.60
26.668000,-70.8750,13,83.12,7.92,14.60
26.678000,-75.1250,13,83.12,7.92,14.60
26.688000,-75.5000,13,83.12,7.92,14.60
26.698000,-81.2500,13,83.12,7.92,14.60
26.708000,-82.7500,13,83.12,7.92,14.60
26.718000,-87.0000,13,83.12,7.92,14.60
26.728000,-87.0000,13,83.12,7.92,14.60
26.738000,-89.3750,13,83.12,7.92,14.60
26.748000,-88.6250,13,83.12,7.92,14.60
26.758000,-90.2500,13,83.12,7.92,14.60
26.768000,-88.1250,13,83.12,7.92,14.60
26.778000,-90.1250,13,83.12,7.92,14.60
26.788000,-87.8750,13,83.12,7.92,14.60
26.798000,-89.6250,13,83.12,7.92,14.60
26.808000,-87.8750,13,83.12,7.92,14.60
26.818000,-89.6250,13,83.12,7.92,14.60
26.828000,-88.3750,13,83.12,7.92,14.60
26.838000,-89.2500,13,83.12,7.92,14.60
26.848000,-87.6250,13,83.12,7.92,14.60
26.858000,-89.1250,13,83.12,7.92,14.60
26.868000,-86.2500,13,83.12,7.92,14.60
26.878000,-88.7500,13,83.12,7.92,14.60
26.888000,-87.0000,13,83.12,7.92,14.60
26.898000,-88.7500,13,83.12,7.92,14.60
26.908000,-87.5000,13,83.12,7.92,14.60
26.918000,-89.0000,13,83.12,7.92,14.60
26.928000,-88.0000,13,83.12,7.92,14.60
26.938000,-89.2500,13,83.12,7.92,14.60
26.948000,-87.5000,13,83.12,7.92,14.60
26.958000,-89.2500,13,83.12,7.92,14.60
26.968000,-88.0000,13,83.12,7.92,14.60
26.978000,-89.2500,13,83.12,7.92,14.60
26.988000,-87.5000,13,83.12,7.92,14.60
26.998000,-89.2500,13,83.12,7.92,14.60
27.008000,-86.7500,13,83.12,7.92,14.60
27.018000,-88.5000,13,83.12,7.92,14.60
27.028000,-86.3750,13,83.12,7.92,14.60
27.038000,-88.5000,13,83.12,7.92,14.60
27.048000,-87.7500,13,83.12,7.92,14.60
27.058000,-89.2500,13,83.12,7.92,14.60
27.068000,-88.2500,13,83.12,7.92,14.60
27.078000,-89.3750,13,83.12,7.92,14.60
27.088000,-88.7500,13,83.12,7.92,14.60
27.098000,-90.1250,13,83.12,7.92,14.60
27.108000,-88.6250,13,83.12,7.92,14.60
27.118000,-90.1250,13,83.12,7.92,14.60
27.128000,-88.7500,13,83.12,7.92,14.60
27.138000,-89.7500,13,83.12,7.92,14.60
27.148000,-82.1250,13,83.12,7.92,14.60
27.158000,-72.0000,13,83.12,7.92,14.60
27.168000,-74.1250,13,83.12,7.92,14.60
27.178000,-92.3750,13,83.12,7.92,14.60
27.188000,-104.1250,13,83.12,7.92,14.60
27.198000,-89.0000,13,83.12,7.92,14.60
27.208000,-83.2500,13,83.12,7.92,14.60
27.218000,-85.3750,13,83.12,7.92,14.60
27.228000,-85.0000,13,83.12,7.92,14.60
27.238000,-86.2500,13,83.12,7.92,14.60
27.248000,-84.6250,13,83.12,7.92,14.60
27.258000,-85.5000,13,83.12,7.92,14.60
27.268000,-83.8750,13,83.12,7.92,14.60
27.278000,-83.8750,13,83.12,7.92,14.60
27.288000,-82.3750,13,83.12,7.92,14.60
27.298000,-82.2500,13,83.12,7.92,14.60
27.308000,-80.5000,13,83.12,7.92,14.60
27.318000,-79.8750,13,83.12,7.92,14.60
27.328000,-78.2500,13,83.12,7.92,14.60
27.338000,-78.0000,13,83.12,7.92,14.60
27.348000,-75.5000,13,83.12,7.92,14.60
27.358000,-75.2500,13,83.12,7.92,14.60
27.368000,-73.7500,13,83.12,7.92,14.60
27.378000,-76.0000,13,83.12,7.92,14.60
27.388000,-75.6250,13,83.12,7.92,14.60
27.398000,-78.3750,13,83.12,7.92,14.60
27.408000,-79.7500,13,83.12,7.92,14.60
27.418000,-83.6250,13,83.12,7.92,14.60
27.428000,-85.5000,13,83.12,7.92,14.60
27.438000,-86.8750,13,83.12,7.92,14.60
27.448000,-88.2500,13,83.12,7.92,14.60
27.458000,-89.0000,13,83.12,7.92,14.60
27.468000,-89.2500,13,83.12,7.92,14.60
27.478000,-89.5000,13,83.12,7.92,14.60
27.488000,-88.5000,13,83.12,7.92,14.60
27.498000,-88.5000,13,83.12,7.92,14.60
27.508000,-88.2500,13,83.12,7.92,14.60
27.518000,-88.3750,13,83.12,7.92,14.60
27.528000,-87.7500,13,83.12,7.92,14.60
27.538000,-87.8750,13,83.12,7.92,14.60
27.548000,-87.8750,13,83.12,7.92,14.60
27.558000,-88.2500,13,83.12,7.92,14.60
27.568000,-87.7500,13,83.12,7.92,14.60
27.578000,-88.0000,13,83.12,7.92,14.60
27.588000,-87.0000,13,83.12,7.92,14.60
27.598000,-87.5000,13,83.12,7.92,14.60
27.608000,-88.6250,13,83.12,7.92,14.60
27.618000,-87.7500,13,83.12,7.92,14.60
27.628000,-88.5000,13,83.12,7.92,14.60
27.638000,-88.2500,13,83.12,7.92,14.60
27.648000,-88.8750,13,83.12,7.92,14.60
27.658000,-88.3750,13,83.12,7.92,14.60
27.668000,-88.0000,13,83.12,7.92,14.60
27.678000,-87.7500,13,83.12,7.92,14.60
27.688000,-88.3750,13,83.12,7.92,14.60
27.698000,-88.2500,13,83.12,7.92,14.60
27.708000,-87.3750,13,83.12,7.92,14.60
27.718000,-87.0000,13,83.12,7.92,14.60
27.728000,-86.2500,13,83.12,7.92,14.60
27.738000,-86.7500,13,83.12,7.92,14.60
27.748000,-88.3750,13,83.12,7.92,14.60
27.758000,-88.2500,13,83.12,7.92,14.60
27.768000,-89.2500,13,83.12,7.92,14.60
27.778000,-89.7500,13,83.12,7.92,14.60
27.788000,-89.5000,13,83.12,7.92,14.60
27.798000,-89.3750,13,83.12,7.92,14.60
27.808000,-89.3750,13,83.12,7.92,14.60
27.818000,-88.1250,13,83.12,7.92,14.60
27.828000,-89.5000,13,83.12,7.92,14.60
27.838000,-88.0000,13,83.12,7.92,14.60
27.848000,-72.5000,13,83.12,7.92,14.60
27.858000,-105.0000,13,83.12,7.92,14.60
27.868000,-83.1250,13,83.12,7.92,14.60
27.878000,-80.8750,13,83.12,7.92,14.60
27.888000,-72.2500,13,83.12,7.92,14.60
27.898000,-86.6250,13,83.12,7.92,14.60
27.908000,-88.7500,13,83.12,7.92,14.60
27.918000,-89.0000,13,83.12,7.92,14.60
27.928000,-87.7500,13,83.12,7.92,14.60
27.938000,-86.8750,13,83.12,7.92,14.60
27.948000,-87.7500,13,83.12,7.92,14.60
27.958000,-86.7500,13,83.12,7.92,14.60
27.968000,-86.3750,13,83.12,7.92,14.60
27.978000,-88.0000,13,83.12,7.92,14.60
27.988000,-86.8750,13,83.12,7.92,14.60
27.998000,-88.6250,13,83.12,7.92,14.60
28.008000,-87.1250,13,83.12,7.92,14.60
28.018000,-88.0000,13,83.12,7.92,14.60
28.028000,-86.7500,13,83.12,7.92,14.60
28.038000,-88.0000,13,83.12,7.92,14.60
28.048000,-86.8750,13,83.12,7.92,14.60
28.058000,-87.6250,13,83.12,7.92,14.60
28.068000,-87.6250,13,83.12,7.92,14.60
28.078000,-82.1250,13,83.12,7.92,14.60
28.088000,-90.1250,13,83.12,7.92,14.60
28.098000,-78.0000,13,83.12,7.92,14.60
28.108000,-73.3750,13,83.12,7.92,14.60
28.118000,-74.3750,13,83.12,7.92,14.60
28.128000,-81.2500,13,83.12,7.92,14.60
28.138000,-87.0000,13,83.12,7.92,14.60
28.148000,-86.5000,13,83.12,7.92,14.60
28.158000,-88.2500,13,83.12,7.92,14.60
28.168000,-86.5000,13,83.12,7.92,14.60
28.178000,-88.0000,13,83.12,7.92,14.60
28.188000,-86.2500,13,83.12,7.92,14.60
28.198000,-88.1250,13,83.12,7.92,14.60
28.208000,-86.5000,13,83.12,7.92,14.60
28.218000,-87.6250,13,83.12,7.92,14.60
28.228000,-86.5000,13,83.12,7.92,14.60
28.238000,-88.1250,13,83.12,7.92,14.60
28.248000,-86.3750,13,83.12,7.92,14.60
28.258000,-88.3750,13,83.12,7.92,14.60
28.268000,-86.6250,13,83.12,7.92,14.60
28.278000,-89.0000,13,83.12,7.92,14.60
28.288000,-87.6250,13,83.12,7.92,14.60
28.298000,-85.5000,13,83.12,7.92,14.60
28.308000,-86.0000,13,83.12,7.92,14.60
28.318000,-89.0000,13,83.12,7.92,14.60
28.328000,-82.6250,13,83.12,7.92,14.60
28.338000,-77.1250,13,83.12,7.92,14.60
28.348000,-75.7500,13,83.12,7.92,14.60
28.358000,-76.8750,13,83.12,7.92,14.60
28.368000,-80.5000,13,83.12,7.92,14.60
28.378000,-83.6250,13,83.12,7.92,14.60
28.388000,-86.7500,13,83.12,7.92,14.60
28.398000,-88.0000,13,83.12,7.92,14.60
28.408000,-87.0000,13,83.12,7.92,14.60
28.418000,-86.2500,13,83.12,7.92,14.60
28.428000,-86.7500,13,83.12,7.92,14.60
28.438000,-86.3750,13,83.12,7.92,14.60
28.448000,-87.5000,13,83.12,7.92,14.60
28.458000,-74.3750,13,83.12,7.92,14.60
28.468000,-82.7500,13,83.12,7.92,14.60
28.478000,-83.5000,13,83.12,7.92,14.60
28.488000,-83.2500,13,83.12,7.92,14.60
28.498000,-82.7500,13,83.12,7.92,14.60
28.508000,-80.5000,13,83.12,7.92,14.60
28.518000,-76.8750,13,83.12,7.92,14.60
28.528000,-74.6250,13,83.12,7.92,14.60
28.538000,-73.3750,13,83.12,7.92,14.60
28.548000,-75.5000,13,83.12,7.92,14.60
28.558000,-80.1250,13,83.12,7.92,14.60
28.568000,-84.1250,13,83.12,7.92,14.60
28.578000,-86.1250,13,83.12,7.92,14.60
28.588000,-87.8750,13,83.12,7.92,14.60
28.598000,-86.1250,13,83.12,7.92,14.60
28.608000,-86.0000,13,83.12,7.92,14.60
28.618000,-87.0000,13,83.12,7.92,14.60
28.628000,-86.3750,13,83.12,7.92,14.60
28.638000,-86.5000,13,83.12,7.92,14.60
28.648000,-87.6250,13,83.12,7.92,14.60
28.658000,-86.1250,13,83.12,7.92,14.60
28.668000,-86.7500,13,83.12,7.92,14.60
28.678000,-85.3750,13,83.12,7.92,14.60
28.688000,-86.2500,13,83.12,7.92,14.60
28.698000,-84.5000,13,83.12,7.92,14.60
28.708000,-86.2500,13,83.12,7.92,14.60
28.718000,-86.3750,13,83.12,7.92,14.60
28.728000,-86.8750,13,83.12,7.92,14.60
28.738000,-86.2500,13,83.12,7.92,14.60
28.748000,-82.2500,13,83.12,7.92,14.60
28.758000,-73.8750,13,83.12,7.92,14.60
28.768000,-99.2500,13,83.12,7.92,14.60
28.778000,-82.2500,13,83.12,7.92,14.60
28.788000,-85.1250,13,83.12,7.92,14.60
28.798000,-78.7500,13,83.12,7.92,14.60
28.808000,-76.0000,13,83.12,7.92,14.60
28.818000,-74.5000,13,83.12,7.92,14.60
28.828000,-76.2500,13,83.12,7.92,14.60
28.838000,-79.0000,13,83.12,7.92,14.60
28.848000,-83.8750,13,83.12,7.92,14.60
28.858000,-85.7500,13,83.12,7.92,14.60
28.868000,-86.6250,13,83.12,7.92,14.60
28.878000,-87.0000,13,83.12,7.92,14.60
28.888000,-87.5000,13,83.12,7.92,14.60
28.898000,-86.5000,13,83.12,7.92,14.60
28.908000,-87.2500,13,83.12,7.92,14.60
28.918000,-86.0000,13,83.12,7.92,14.60
28.928000,-87.8750,13,83.12,7.92,14.60
28.938000,-87.2500,13,83.12,7.92,14.60
28.948000,-85.8750,13,83.12,7.92,14.60
28.958000,-87.7500,13,83.12,7.92,14.60
28.968000,-86.6250,13,83.12,7.92,14.60
28.978000,-88.2500,13,83.12,7.92,14.60
28.988000,-87.5000,13,83.12,7.92,14.60
28.998000,-87.1250,13,83.12,7.92,14.60
29.008000,-88.5000,13,83.12,7.92,14.60
29.018000,-82.6250,13,83.12,7.92,14.60
29.028000,-93.1250,13,83.12,7.92,14.60
29.038000,-85.5000,13,83.12,7.92,14.60
29.048000,-84.8750,13,83.12,7.92,14.60
29.058000,-85.8750,13,83.12,7.92,14.60
29.068000,-87.0000,13,83.12,7.92,14.60
29.078000,-86.2500,13,83.12,7.92,14.60
29.088000,-87.6250,13,83.12,7.92,14.60
29.098000,-87.2500,13,83.12,7.92,14.60
29.108000,-86.1250,13,83.12,7.92,14.60
29.118000,-86.2500,13,83.12,7.92,14.60
29.128000,-84.8750,13,83.12,7.92,14.60
29.138000,-85.3750,13,83.12,7.92,14.60
29.148000,-86.5000,13,83.12,7.92,14.60
29.158000,-86.5000,13,83.12,7.92,14.60
29.168000,-88.2500,13,83.12,7.92,14.60
29.178000,-83.2500,13,83.12,7.92,14.60
29.188000,-83.3750,13,83.12,7.92,14.60
29.198000,-84.2500,13,83.12,7.92,14.60
29.208000,-83.3750,13,83.12,7.92,14.60
29.218000,-81.5000,13,83.12,7.92,14.60
29.228000,-80.0000,13,83.12,7.92,14.60
29.238000,-78.7500,13,83.12,7.92,14.60
29.248000,-78.0000,13,83.12,7.92,14.60
29.258000,-75.0000,13,83.12,7.92,14.60
29.268000,-84.5000,13,83.12,7.92,14.60
29.278000,-87.6250,13,83.12,7.92,14.60
29.288000,-86.7500,13,83.12,7.92,14.60
29.298000,-87.2500,13,83.12,7.92,14.60
29.308000,-86.6250,13,83.12,7.92,14.60
29.318000,-87.3750,13,83.12,7.92,14.60
29.328000,-87.2500,13,83.12,7.92,14.60
29.338000,-88.0000,13,83.12,7.92,14.60
29.348000,-87.3750,13,83.12,7.92,14.60
29.358000,-86.5000,13,83.12,7.92,14.60
29.368000,-88.1250,13,83.12,7.92,14.60
29.378000,-86.0000,13,83.12,7.92,14.60
29.388000,-88.2500,13,83.12,7.92,14.60
29.398000,-86.0000,13,83.12,7.92,14.60
29.408000,-86.1250,13,83.12,7.92,14.60
29.418000,-87.0000,13,83.12,7.92,14.60
29.428000,-87.6250,13,83.12,7.92,14.60
29.438000,-95.3750,13,83.12,7.92,14.60
29.448000,-83.5000,13,83.12,7.92,14.60
29.458000,-85.1250,13,83.12,7.92,14.60
29.468000,-83.1250,13,83.12,7.92,14.60
29.478000,-83.5000,13,83.12,7.92,14.60
29.488000,-83.3750,13,83.12,7.92,14.60
29.498000,-81.5000,13,83.12,7.92,14.60
29.508000,-78.7500,13,83.12,7.92,14.60
29.518000,-79.7500,13,83.12,7.92,14.60
29.528000,-76.6250,13,83.12,7.92,14.60
29.538000,-77.5000,13,83.12,7.92,14.60
29.548000,-76.2500,13,83.12,7.92,14.60
29.558000,-79.0000,13,83.12,7.92,14.60
29.568000,-80.2500,13,83.12,7.92,14.60
29.578000,-83.3750,13,83.12,7.92,14.60
29.588000,-84.0000,13,83.12,7.92,14.60
29.598000,-85.1250,13,83.12,7.92,14.60
29.608000,-85.7500,13,83.12,7.92,14.60
29.618000,-86.2500,13,83.12,7.92,14.60
29.628000,-88.0000,13,83.12,7.92,14.60
29.638000,-86.1250,13,83.12,7.92,14.60
29.648000,-87.8750,13,83.12,7.92,14.60
29.658000,-85.5000,13,83.12,7.92,14.60
29.668000,-87.3750,13,83.12,7.92,14.60
29.678000,-85.6250,13,83.12,7.92,14.60
29.688000,-86.7500,13,83.12,7.92,14.60
29.698000,-86.1250,13,83.12,7.92,14.60
29.708000,-86.2500,13,83.12,7.92,14.60
29.718000,-86.0000,13,83.12,7.92,14.60
29.728000,-86.0000,13,83.12,7.92,14.60
29.738000,-86.3750,13,83.12,7.92,14.60
29.748000,-85.7500,13,83.12,7.92,14.60
29.758000,-87.2500,13,83.12,7.92,14.60
29.768000,-86.0000,13,83.12,7.92,14.60
29.778000,-88.2500,13,83.12,7.92,14.60
29.788000,-86.5000,13,83.12,7.92,14.60
29.798000,-88.2500,13,83.12,7.92,14.60
29.808000,-86.5000,13,83.12,7.92,14.60
29.818000,-88.1250,13,83.12,7.92,14.60
29.828000,-86.6250,13,83.12,7.92,14.60
29.838000,-88.2500,13,83.12,7.92,14.60
29.848000,-85.8750,13,83.12,7.92,14.60
29.858000,-88.0000,13,83.12,7.92,14.60
29.868000,-86.8750,13,83.12,7.92,14.60
29.878000,-87.7500,13,83.12,7.92,14.60
29.888000,-86.0000,13,83.12,7.92,14.60
29.898000,-83.0000,13,83.12,7.92,14.60
29.908000,-86.0000,13,83.12,7.92,14.60
29.918000,-87.1250,13,83.12,7.92,14.60
29.928000,-81.7500,13,83.12,7.92,14.60
29.938000,-86.5000,13,83.12,7.92,14.60
29.948000,-82.0000,13,83.12,7.92,14.60
29.958000,-87.0000,13,83.12,7.92,14.60
29.968000,-81.0000,13,83.12,7.92,14.60
29.978000,-83.0000,13,83.12,7.92,14.60
29.988000,-82.1250,13,83.12,7.92,14.60
29.998000,-88.1250,13,83.12,7.92,14.60
30.008000,-86.6250,13,83.12,7.92,14.60
30.018000,-88.0000,15,94.34,9.14,14.19
30.028000,-87.6250,15,94.34,9.14,14.19
30.038000,-88.3750,15,94.34,9.14,14.19
30.048000,-87.3750,15,94.34,9.14,14.19
30.058000,-88.5000,15,94.34,9.14,14.19
30.068000,-86.5000,15,94.34,9.14,14.19
30.078000,-83.2500,15,94.34,9.14,14.19
30.088000,-73.0000,15,94.34,9.14,14.19
30.098000,-77.7500,15,94.34,9.14,14.19
30.108000,-92.8750,15,94.34,9.14,14.19
30.118000,-100.0000,15,94.34,9.14,14.19
30.128000,-85.5000,15,94.34,9.14,14.19
30.138000,-83.0000,15,94.34,9.14,14.19
30.148000,-84.0000,15,94.34,9.14,14.19
30.158000,-84.8750,15,94.34,9.14,14.19
30.168000,-83.6250,15,94.34,9.14,14.19
30.178000,-84.2500,15,94.34,9.14,14.19
30.188000,-82.7500,15,94.34,9.14,14.19
30.198000,-83.3750,15,94.34,9.14,14.19
30.208000,-82.3750,15,94.34,9.14,14.19
30.218000,-82.8750,15,94.34,9.14,14.19
30.228000,-81.5000,15,94.34,9.14,14.19
30.238000,-82.1250,15,94.34,9.14,14.19
30.248000,-79.7500,15,94.34,9.14,14.19
30.258000,-78.6250,15,94.34,9.14,14.19
30.268000,-77.0000,15,94.34,9.14,14.19
30.278000,-76.7500,15,94.34,9.14,14.19
30.288000,-75.6250,15,94.34,9.14,14.19
30.298000,-75.5000,15,94.34,9.14,14.19
30.308000,-75.8750,15,94.34,9.14,14.19
30.318000,-76.1250,15,94.34,9.14,14.19
30.328000,-78.0000,15,94.34,9.14,14.19
30.338000,-80.3750,15,94.34,9.14,14.19
30.348000,-82.0000,15,94.34,9.14,14.19
30.358000,-83.7500,15,94.34,9.14,14.19
30.368000,-85.1250,15,94.34,9.14,14.19
30.378000,-85.3750,15,94.34,9.14,14.19
30.388000,-86.7500,15,94.34,9.14,14.19
30.398000,-86.8750,15,94.34,9.14,14.19
30.408000,-86.3750,15,94.34,9.14,14.19
30.418000,-86.2500,15,94.34,9.14,14.19
30.428000,-85.5000,15,94.34,9.14,14.19
30.438000,-85.5000,15,94.34,9.14,14.19
30.448000,-85.6250,15,94.34,9.14,14.19
30.458000,-85.6250,15,94.34,9.14,14.19
30.468000,-84.7500,15,94.34,9.14,14.19
30.478000,-85.2500,15,94.34,9.14,14.19
30.488000,-84.8750,15,94.34,9.14,14.19
30.498000,-84.5000,15,94.34,9.14,14.19
30.508000,-84.7500,15,94.34,9.14,14.19
30.518000,-85.3750,15,94.34,9.14,14.19
30.528000,-85.3750,15,94.34,9.14,14.19
30.538000,-85.3750,15,94.34,9.14,14.19
30.548000,-86.0000,15,94.34,9.14,14.19
30.558000,-84.8750,15,94.34,9.14,14.19
30.568000,-85.5000,15,94.34,9.14,14.19
30.578000,-85.1250,15,94.34,9.14,14.19
30.588000,-85.6250,15,94.34,9.14,14.19
30.598000,-85.7500,15,94.34,9.14,14.19
30.608000,-86.1250,15,94.34,9.14,14.19
30.618000,-85.6250,15,94.34,9.14,14.19
30.628000,-86.0000,15,94.34,9.14,14.19
30.638000,-85.6250,15,94.34,9.14,14.19
30.648000,-85.8750,15,94.34,9.14,14.19
30.658000,-85.1250,15,94.34,9.14,14.19
30.668000,-86.2500,15,94.34,9.14,14.19
30.678000,-85.3750,15,94.34,9.14,14.19
30.688000,-85.6250,15,94.34,9.14,14.19
30.698000,-85.2500,15,94.34,9.14,14.19
30.708000,-85.6250,15,94.34,9.14,14.19
30.718000,-84.6250,15,94.34,9.14,14.19
30.728000,-86.0000,15,94.34,9.14,14.19
30.738000,-84.8750,15,94.34,9.14,14.19
30.748000,-86.0000,15,94.34,9.14,14.19
30.758000,-85.1250,15,94.34,9.14,14.19
30.768000,-84.8750,15,94.34,9.14,14.19
30.778000,-83.8750,15,94.34,9.14,14.19
30.788000,-84.6250,15,94.34,9.14,14.19
30.798000,-83.1250,15,94.34,9.14,14.19
30.808000,-84.3750,15,94.34,9.14,14.19
30.818000,-82.6250,15,94.34,9.14,14.19
30.828000,-84.3750,15,94.34,9.14,14.19
30.838000,-83.8750,15,94.34,9.14,14.19
30.848000,-85.0000,15,94.34,9.14,14.19
30.858000,-84.8750,15,94.34,9.14,14.19
30.868000,-86.0000,15,94.34,9.14,14.19
30.878000,-85.0000,15,94.34,9.14,14.19
30.888000,-86.0000,15,94.34,9.14,14.19
30.898000,-85.1250,15,94.34,9.14,14.19
30.908000,-86.2500,15,94.34,9.14,14.19
30.918000,-85.2500,15,94.34,9.14,14.19
30.928000,-86.1250,15,94.34,9.14,14.19
30.938000,-80.3750,15,94.34,9.14,14.19
30.948000,-75.1250,15,94.34,9.14,14.19
30.958000,-74.0000,15,94.34,9.14,14.19
30.968000,-84.7500,15,94.34,9.14,14.19
30.978000,-97.2500,15,94.34,9.14,14.19
30.988000,-88.1250,15,94.34,9.14,14.19
30.998000,-80.0000,15,94.34,9.14,14.19
31.008000,-81.3750,15,94.34,9.14,14.19
31.018000,-82.0000,15,94.34,9.14,14.19
31.028000,-83.5000,15,94.34,9.14,14.19
31.038000,-80.7500,15,94.34,9.14,14.19
31.048000,-82.3750,15,94.34,9.14,14.19
31.058000,-81.0000,15,94.34,9.14,14.19
31.068000,-81.2500,15,94.34,9.14,14.19
31.078000,-79.6250,15,94.34,9.14,14.19
31.088000,-80.7500,15,94.34,9.14,14.19
31.098000,-78.0000,15,94.34,9.14,14.19
31.108000,-78.6250,15,94.34,9.14,14.19
31.118000,-76.6250,15,94.34,9.14,14.19
31.128000,-76.7500,15,94.34,9.14,14.19
31.138000,-73.5000,15,94.34,9.14,14.19
31.148000,-74.6250,15,94.34,9.14,14.19
31.158000,-72.5000,15,94.34,9.14,14.19
31.168000,-74.1250,15,94.34,9.14,14.19
31.178000,-74.0000,15,94.34,9.14,14.19
31.188000,-76.3750,15,94.34,9.14,14.19
31.198000,-76.8750,15,94.34,9.14,14.19
31.208000,-80.7500,15,94.34,9.14,14.19
31.218000,-80.6250,15,94.34,9.14,14.19
31.228000,-84.1250,15,94.34,9.14,14.19
31.238000,-83.2500,15,94.34,9.14,14.19
31.248000,-85.5000,15,94.34,9.14,14.19
31.258000,-83.7500,15,94.34,9.14,14.19
31.268000,-86.0000,15,94.34,9.14,14.19
31.278000,-84.1250,15,94.34,9.14,14.19
31.288000,-86.0000,15,94.34,9.14,14.19
31.298000,-84.3750,15,94.34,9.14,14.19
31.308000,-85.3750,15,94.34,9.14,14.19
31.318000,-83.6250,15,94.34,9.14,14.19
31.328000,-85.2500,15,94.34,9.14,14.19
31.338000,-83.5000,15,94.34,9.14,14.19
31.348000,-85.6250,15,94.34,9.14,14.19
31.358000,-83.5000,15,94.34,9.14,14.19
31.368000,-84.7500,15,94.34,9.14,14.19
31.378000,-83.2500,15,94.34,9.14,14.19
31.388000,-85.3750,15,94.34,9.14,14.19
31.398000,-83.7500,15,94.34,9.14,14.19
31.408000,-85.5000,15,94.34,9.14,14.19
31.418000,-83.7500,15,94.34,9.14,14.19
31.428000,-85.3750,15,94.34,9.14,14.19
31.438000,-84.0000,15,94.34,9.14,14.19
31.448000,-85.2500,15,94.34,9.14,14.19
31.458000,-84.0000,15,94.34,9.14,14.19
31.468000,-86.7500,15,94.34,9.14,14.19
31.478000,-84.2500,15,94.34,9.14,14.19
31.488000,-85.6250,15,94.34,9.14,14.19
31.498000,-83.7500,15,94.34,9.14,14.19
31.508000,-86.2500,15,94.34,9.14,14.19
31.518000,-84.2500,15,94.34,9.14,14.19
31.528000,-85.8750,15,94.34,9.14,14.19
31.538000,-84.5000,15,94.34,9.14,14.19
31.548000,-85.6250,15,94.34,9.14,14.19
31.558000,-83.7500,15,94.34,9.14,14.19
31.568000,-86.1250,15,94.34,9.14,14.19
31.578000,-84.3750,15,94.34,9.14,14.19
31.588000,-85.5000,15,94.34,9.14,14.19
31.598000,-84.5000,15,94.34,9.14,14.19
31.608000,-85.8750,15,94.34,9.14,14.19
31.618000,-83.5000,15,94.34,9.14,14.19
31.628000,-84.1250,15,94.34,9.14,14.19
31.638000,-83.2500,15,94.34,9.14,14.19
31.648000,-83.1250,15,94.34,9.14,14.19
31.658000,-82.3750,15,94.34,9.14,14.19
31.668000,-84.3750,15,94.34,9.14,14.19
31.678000,-83.1250,15,94.34,9.14,14.19
31.688000,-85.5000,15,94.34,9.14,14.19
31.698000,-85.0000,15,94.34,9.14,14.19
31.708000,-85.3750,15,94.34,9.14,14.19
31.718000,-85.1250,15,94.34,9.14,14.19
31.728000,-86.1250,15,94.34,9.14,14.19
31.738000,-84.6250,15,94.34,9.14,14.19
31.748000,-85.7500,15,94.34,9.14,14.19
31.758000,-85.5000,15,94.34,9.14,14.19
31.768000,-82.3750,15,94.34,9.14,14.19
31.778000,-74.8750,15,94.34,9.14,14.19
31.788000,-71.3750,15,94.34,9.14,14.19
31.798000,-76.5000,15,94.34,9.14,14.19
31.808000,-99.3750,15,94.34,9.14,14.19
31.818000,-90.0000,15,94.34,9.14,14.19
31.828000,-81.2500,15,94.34,9.14,14.19
31.838000,-81.1250,15,94.34,9.14,14.19
31.848000,-82.1250,15,94.34,9.14,14.19
31.858000,-81.3750,15,94.34,9.14,14.19
31.868000,-80.8750,15,94.34,9.14,14.19
31.878000,-79.7500,15,94.34,9.14,14.19
31.888000,-75.5000,15,94.34,9.14,14.19
31.898000,-72.7500,15,94.34,9.14,14.19
31.908000,-77.0000,15,94.34,9.14,14.19
31.918000,-86.0000,15,94.34,9.14,14.19
31.928000,-86.6250,15,94.34,9.14,14.19
31.938000,-85.7500,15,94.34,9.14,14.19
31.948000,-85.3750,15,94.34,9.14,14.19
31.958000,-85.5000,15,94.34,9.14,14.19
31.968000,-87.0000,15,94.34,9.14,14.19
31.978000,-86.5000,15,94.34,9.14,14.19
31.988000,-87.8750,15,94.34,9.14,14.19
31.998000,-85.7500,15,94.34,9.14,14.19
32.008000,-87.3750,15,94.34,9.14,14.19
32.018000,-86.6250,15,94.34,9.14,14.19
32.028000,-87.1250,15,94.34,9.14,14.19
32.038000,-86.6250,15,94.34,9.14,14.19
32.048000,-87.6250,15,94.34,9.14,14.19
32.058000,-86.6250,15,94.34,9.14,14.19
32.068000,-86.2500,15,94.34,9.14,14.19
32.078000,-85.8750,15,94.34,9.14,14.19
32.088000,-88.3750,15,94.34,9.14,14.19
32.098000,-83.6250,15,94.34,9.14,14.19
32.108000,-84.5000,15,94.34,9.14,14.19
32.118000,-76.6250,15,94.34,9.14,14.19
32.128000,-73.7500,15,94.34,9.14,14.19
32.138000,-78.5000,15,94.34,9.14,14.19
32.148000,-83.6250,15,94.34,9.14,14.19
32.158000,-88.0000,15,94.34,9.14,14.19
32.168000,-88.3750,15,94.34,9.14,14.19
32.178000,-89.3750,15,94.34,9.14,14.19
32.188000,-87.6250,15,94.34,9.14,14.19
32.198000,-86.7500,15,94.34,9.14,14.19
32.208000,-87.6250,15,94.34,9.14,14.19
32.218000,-86.8750,15,94.34,9.14,14.19
32.228000,-87.2500,15,94.34,9.14,14.19
32.238000,-87.0000,15,94.34,9.14,14.19
32.248000,-87.7500,15,94.34,9.14,14.19
32.258000,-87.2500,15,94.34,9.14,14.19
32.268000,-87.3750,15,94.34,9.14,14.19
32.278000,-86.7500,15,94.34,9.14,14.19
32.288000,-87.7500,15,94.34,9.14,14.19
32.298000,-87.8750,15,94.34,9.14,14.19
32.308000,-89.5000,15,94.34,9.14,14.19
32.318000,-88.0000,15,94.34,9.14,14.19
32.328000,-87.6250,15,94.34,9.14,14.19
32.338000,-97.0000,15,94.34,9.14,14.19
32.348000,-85.2500,15,94.34,9.14,14.19
32.358000,-82.8750,15,94.34,9.14,14.19
32.368000,-80.2500,15,94.34,9.14,14.19
32.378000,-79.0000,15,94.34,9.14,14.19
32.388000,-77.6250,15,94.34,9.14,14.19
32.398000,-74.7500,15,94.34,9.14,14.19
32.408000,-72.5000,15,94.34,9.14,14.19
32.418000,-75.8750,15,94.34,9.14,14.19
32.428000,-88.1250,15,94.34,9.14,14.19
32.438000,-86.8750,15,94.34,9.14,14.19
32.448000,-87.3750,15,94.34,9.14,14.19
32.458000,-85.5000,15,94.34,9.14,14.19
32.468000,-87.5000,15,94.34,9.14,14.19
32.478000,-87.2500,15,94.34,9.14,14.19
32.488000,-87.0000,15,94.34,9.14,14.19
32.498000,-87.3750,15,94.34,9.14,14.19
32.508000,-77.5000,15,94.34,9.14,14.19
32.518000,-94.6250,15,94.34,9.14,14.19
32.528000,-83.6250,15,94.34,9.14,14.19
32.538000,-85.2500,15,94.34,9.14,14.19
32.548000,-84.1250,15,94.34,9.14,14.19
32.558000,-82.7500,15,94.34,9.14,14.19
32.568000,-81.8750,15,94.34,9.14,14.19
32.578000,-79.2500,15,94.34,9.14,14.19
32.588000,-74.7500,15,94.34,9.14,14.19
32.598000,-73.5000,15,94.34,9.14,14.19
32.608000,-87.0000,15,94.34,9.14,14.19
32.618000,-87.2500,15,94.34,9.14,14.19
32.628000,-89.1250,15,94.34,9.14,14.19
32.638000,-87.1250,15,94.34,9.14,14.19
32.648000,-88.1250,15,94.34,9.14,14.19
32.658000,-86.7500,15,94.34,9.14,14.19
32.668000,-88.3750,15,94.34,9.14,14.19
32.678000,-86.0000,15,94.34,9.14,14.19
32.688000,-88.0000,15,94.34,9.14,14.19
32.698000,-87.3750,15,94.34,9.14,14.19
32.708000,-87.8750,15,94.34,9.14,14.19
32.718000,-88.8750,15,94.34,9.14,14.19
32.728000,-88.2500,15,94.34,9.14,14.19
32.738000,-87.7500,15,94.34,9.14,14.19
32.748000,-87.7500,15,94.34,9.14,14.19
32.758000,-85.8750,15,94.34,9.14,14.19
32.768000,-89.8750,15,94.34,9.14,14.19
32.778000,-73.0000,15,94.34,9.14,14.19
32.788000,-77.3750,15,94.34,9.14,14.19
32.798000,-104.7500,15,94.34,9.14,14.19
32.808000,-84.3750,15,94.34,9.14,14.19
32.818000,-85.0000,15,94.34,9.14,14.19
32.828000,-85.2500,15,94.34,9.14,14.19
32.838000,-83.7500,15,94.34,9.14,14.19
32.848000,-80.5000,15,94.34,9.14,14.19
32.858000,-79.7500,15,94.34,9.14,14.19
32.868000,-76.6250,15,94.34,9.14,14.19
32.878000,-76.2500,15,94.34,9.14,14.19
32.888000,-74.0000,15,94.34,9.14,14.19
32.898000,-75.0000,15,94.34,9.14,14.19
32.908000,-85.1250,15,94.34,9.14,14.19
32.918000,-87.8750,15,94.34,9.14,14.19
32.928000,-86.8750,15,94.34,9.14,14.19
32.938000,-87.2500,15,94.34,9.14,14.19
32.948000,-87.7500,15,94.34,9.14,14.19
32.958000,-88.6250,15,94.34,9.14,14.19
32.968000,-88.7500,15,94.34,9.14,14.19
32.978000,-87.0000,15,94.34,9.14,14.19
32.988000,-89.2500,15,94.34,9.14,14.19
32.998000,-88.6250,15,94.34,9.14,14.19
33.008000,-87.5000,15,94.34,9.14,14.19
33.018000,-88.0000,15,94.34,9.14,14.19
33.028000,-87.8750,15,94.34,9.14,14.19
33.038000,-86.6250,15,94.34,9.14,14.19
33.048000,-76.1250,15,94.34,9.14,14.19
33.058000,-74.1250,15,94.34,9.14,14.19
33.068000,-104.0000,15,94.34,9.14,14.19
33.078000,-82.2500,15,94.34,9.14,14.19
33.088000,-84.1250,15,94.34,9.14,14.19
33.098000,-83.7500,15,94.34,9.14,14.19
33.108000,-83.1250,15,94.34,9.14,14.19
33.118000,-82.3750,15,94.34,9.14,14.19
33.128000,-78.8750,15,94.34,9.14,14.19
33.138000,-75.1250,15,94.34,9.14,14.19
33.148000,-86.5000,15,94.34,9.14,14.19
33.158000,-86.7500,15,94.34,9.14,14.19
33.168000,-88.5000,15,94.34,9.14,14.19
33.178000,-87.3750,15,94.34,9.14,14.19
33.188000,-86.5000,15,94.34,9.14,14.19
33.198000,-86.6250,15,94.34,9.14,14.19
33.208000,-86.5000,15,94.34,9.14,14.19
33.218000,-87.8750,15,94.34,9.14,14.19
33.228000,-87.3750,15,94.34,9.14,14.19
33.238000,-87.7500,15,94.34,9.14,14.19
33.248000,-86.0000,15,94.34,9.14,14.19
33.258000,-84.7500,15,94.34,9.14,14.19
33.268000,-86.7500,15,94.34,9.14,14.19
33.278000,-87.1250,15,94.34,9.14,14.19
33.288000,-88.3750,15,94.34,9.14,14.19
33.298000,-69.3750,15,94.34,9.14,14.19
33.308000,-77.0000,15,94.34,9.14,14.19
33.318000,-81.6250,15,94.34,9.14,14.19
33.328000,-83.8750,15,94.34,9.14,14.19
33.338000,-84.1250,15,94.34,9.14,14.19
33.348000,-83.3750,15,94.34,9.14,14.19
33.358000,-82.8750,15,94.34,9.14,14.19
33.368000,-78.1250,15,94.34,9.14,14.19
33.378000,-73.3750,15,94.34,9.14,14.19
33.388000,-85.7500,15,94.34,9.14,14.19
33.398000,-86.3750,15,94.34,9.14,14.19
33.408000,-87.2500,15,94.34,9.14,14.19
33.418000,-85.7500,15,94.34,9.14,14.19
33.428000,-85.8750,15,94.34,9.14,14.19
33.438000,-85.3750,15,94.34,9.14,14.19
33.448000,-87.2500,15,94.34,9.14,14.19
33.458000,-85.5000,15,94.34,9.14,14.19
33.468000,-87.0000,15,94.34,9.14,14.19
33.478000,-85.8750,15,94.34,9.14,14.19
33.488000,-86.6250,15,94.34,9.14,14.19
33.498000,-87.1250,15,94.34,9.14,14.19
33.508000,-87.1250,15,94.34,9.14,14.19
33.518000,-87.0000,15,94.34,9.14,14.19
33.528000,-86.7500,15,94.34,9.14,14.19
33.538000,-87.3750,15,94.34,9.14,14.19
33.548000,-87.5000,15,94.34,9.14,14.19
33.558000,-88.1250,15,94.34,9.14,14.19
33.568000,-86.2500,15,94.34,9.14,14.19
33.578000,-88.2500,15,94.34,9.14,14.19
33.588000,-85.7500,15,94.34,9.14,14.19
33.598000,-87.6250,15,94.34,9.14,14.19
33.608000,-85.3750,15,94.34,9.14,14.19
33.618000,-87.0000,15,94.34,9.14,14.19
33.628000,-85.1250,15,94.34,9.14,14.19
33.638000,-86.3750,15,94.34,9.14,14.19
33.648000,-86.6250,15,94.34,9.14,14.19
33.658000,-86.8750,15,94.34,9.14,14.19
33.668000,-88.2500,15,94.34,9.14,14.19
33.678000,-87.8750,15,94.34,9.14,14.19
33.688000,-89.0000,15,94.34,9.14,14.19
33.698000,-87.6250,15,94.34,9.14,14.19
33.708000,-89.0000,15,94.34,9.14,14.19
33.718000,-87.3750,15,94.34,9.14,14.19
33.728000,-89.1250,15,94.34,9.14,14.19
33.738000,-83.6250,15,94.34,9.14,14.19
33.748000,-76.6250,15,94.34,9.14,14.19
33.758000,-71.3750,15,94.34,9.14,14.19
33.768000,-78.8750,15,94.34,9.14,14.19
33.778000,-102.0000,15,94.34,9.14,14.19
33.788000,-94.7500,15,94.34,9.14,14.19
33.798000,-82.8750,15,94.34,9.14,14.19
33.808000,-84.1250,15,94.34,9.14,14.19
33.818000,-84.1250,15,94.34,9.14,14.19
33.828000,-83.6250,15,94.34,9.14,14.19
33.838000,-83.6250,15,94.34,9.14,14.19
33.848000,-76.2500,15,94.34,9.14,14.19
33.858000,-77.5000,15,94.34,9.14,14.19
33.868000,-78.5000,15,94.34,9.14,14.19
33.878000,-73.5000,15,94.34,9.14,14.19
33.888000,-75.5000,15,94.34,9.14,14.19
33.898000,-70.2500,15,94.34,9.14,14.19
33.908000,-68.7500,15,94.34,9.14,14.19
33.918000,-69.5000,15,94.34,9.14,14.19
33.928000,-69.2500,15,94.34,9.14,14.19
33.938000,-71.2500,15,94.34,9.14,14.19
33.948000,-76.0000,15,94.34,9.14,14.19
33.958000,-80.5000,15,94.34,9.14,14.19
33.968000,-82.6250,15,94.34,9.14,14.19
33.978000,-86.1250,15,94.34,9.14,14.19
33.988000,-86.6250,15,94.34,9.14,14.19
33.998000,-88.6250,17,81.69,6.56,16.54
34.008000,-87.8750,17,81.69,6.56,16.54
34.018000,-89.0000,17,81.69,6.56,16.54
34.028000,-88.2500,17,81.69,6.56,16.54
34.038000,-89.5000,17,81.69,6.56,16.54
34.048000,-88.0000,17,81.69,6.56,16.54
34.058000,-89.3750,17,81.69,6.56,16.54
34.068000,-87.8750,17,81.69,6.56,16.54
34.078000,-88.6250,17,81.69,6.56,16.54
34.088000,-87.0000,17,81.69,6.56,16.54
34.098000,-88.1250,17,81.69,6.56,16.54
34.108000,-87.0000,17,81.69,6.56,16.54
34.118000,-88.3750,17,81.69,6.56,16.54
34.128000,-86.2500,17,81.69,6.56,16.54
34.138000,-88.2500,17,81.69,6.56,16.54
