timestamp_s,raw_mV,filtered_mV,is_r_peak,loop,hr_bpm,snr_db
0.000000,-1650.0000,4.2022,0,2,,-0.90
0.002000,-1650.0000,441.8739,0,2,,-0.90
0.004000,-93.5000,843.8012,0,2,,-0.90
0.006000,-97.1250,1179.9536,0,2,,-0.90
0.008000,-99.8750,1431.3357,0,2,,-0.90
0.010000,-95.0000,1592.2822,0,2,,-0.90
0.012000,-94.5000,1669.7923,0,2,,-0.90
0.014000,-91.6250,1680.4296,0,2,,-0.90
0.016000,-88.5000,1645.8944,0,2,,-0.90
0.018000,-87.5000,1588.4711,0,2,,-0.90
0.020000,-88.8750,1527.2972,0,2,,-0.90
0.022000,-89.3750,1475.9882,0,2,,-0.90
0.024000,-88.7500,1441.7650,0,2,,-0.90
0.026000,-92.8750,1425.9147,0,2,,-0.90
0.028000,-95.5000,1425.2221,0,2,,-0.90
0.030000,-92.5000,1433.9096,0,2,,-0.90
0.032000,-92.6250,1445.6234,0,2,,-0.90
0.034000,-89.3750,1455.0703,0,2,,-0.90
0.036000,-94.8750,1459.0351,0,2,,-0.90
0.038000,-93.0000,1456.6751,0,2,,-0.90
0.040000,-93.5000,1449.1560,0,2,,-0.90
0.042000,-90.3750,1438.8402,0,2,,-0.90
0.044000,-88.6250,1428.3163,0,2,,-0.90
0.046000,-88.2500,1419.5613,0,2,,-0.90
0.048000,-88.1250,1413.4493,0,2,,-0.90
0.050000,-81.5000,1409.6940,0,2,,-0.90
0.052000,-80.6250,1407.1724,0,2,,-0.90
0.054000,-75.2500,1404.4665,0,2,,-0.90
0.056000,-77.5000,1400.4112,0,2,,-0.90
0.058000,-73.3750,1394.4603,0,2,,-0.90
0.060000,-75.3750,1386.7706,0,2,,-0.90
0.062000,-74.7500,1378.0125,0,2,,-0.90
0.064000,-77.3750,1369.0160,0,2,,-0.90
0.066000,-79.1250,1360.4069,0,2,,-0.90
0.068000,-85.7500,1352.3786,0,2,,-0.90
0.070000,-87.8750,1344.6771,0,2,,-0.90
0.072000,-91.1250,1336.7879,0,2,,-0.90
0.074000,-92.0000,1328.2346,0,2,,-0.90
0.076000,-99.8750,1318.8553,0,2,,-0.90
0.078000,-99.7500,1308.9393,0,2,,-0.90
0.080000,-99.5000,1299.1663,0,2,,-0.90
0.082000,-97.2500,1290.3709,0,2,,-0.90
0.084000,-96.6250,1283.2273,0,2,,-0.90
0.086000,-99.0000,1277.9769,0,2,,-0.90
0.088000,-99.1250,1274.3064,0,2,,-0.90
0.090000,-96.3750,1271.4278,0,2,,-0.90
0.092000,-95.3750,1268.3344,0,2,,-0.90
0.094000,-93.7500,1264.1402,0,2,,-0.90
0.096000,-94.5000,1258.3772,0,2,,-0.90
0.098000,-92.2500,1251.1417,0,2,,-0.90
0.100000,-90.8750,1243.0364,0,2,,-0.90
0.102000,-90.1250,1234.9326,0,2,,-0.90
0.104000,-91.6250,1227.6411,0,2,,-0.90
0.106000,-97.7500,1221.6151,0,2,,-0.90
0.108000,-92.2500,1216.7926,0,2,,-0.90
0.110000,-92.3750,1212.6365,0,2,,-0.90
0.112000,-90.5000,1208.3517,0,2,,-0.90
0.114000,-92.0000,1203.1953,0,2,,-0.90
0.116000,-91.0000,1196.7590,0,2,,-0.90
0.118000,-90.6250,1189.1191,0,2,,-0.90
0.120000,-91.1250,1180.8012,0,2,,-0.90
0.122000,-91.5000,1172.5773,0,2,,-0.90
0.124000,-92.7500,1165.1764,0,2,,-0.90
0.126000,-93.2500,1159.0182,0,2,,-0.90
0.128000,-93.8750,1154.0692,0,2,,-0.90
0.130000,-93.1250,1149.8701,0,2,,-0.90
0.132000,-90.5000,1145.7208,0,2,,-0.90
0.134000,-92.6250,1140.9467,0,2,,-0.90
0.136000,-90.8750,1135.1451,0,2,,-0.90
0.138000,-91.8750,1128.3196,0,2,,-0.90
0.140000,-85.1250,1120.8574,0,2,,-0.90
0.142000,-87.8750,1113.3632,0,2,,-0.90
0.144000,-90.0000,1106.4179,0,2,,-0.90
0.146000,-90.1250,1100.3538,0,2,,-0.90
0.148000,-91.8750,1095.1331,0,2,,-0.90
0.150000,-91.3750,1090.3743,0,2,,-0.90
0.152000,-88.3750,1085.5127,0,2,,-0.90
0.154000,-90.0000,1080.0315,0,2,,-0.90
0.156000,-89.3750,1073.6704,0,2,,-0.90
0.158000,-90.0000,1066.5301,0,2,,-0.90
0.160000,-90.6250,1059.0330,0,2,,-0.90
0.162000,-90.0000,1051.7573,0,2,,-0.90
0.164000,-89.1250,1045.2109,0,2,,-0.90
0.166000,-91.1250,1039.6330,0,2,,-0.90
0.168000,-86.7500,1034.9001,0,2,,-0.90
0.170000,-91.6250,1030.5713,0,2,,-0.90
0.172000,-85.8750,1026.0549,0,2,,-0.90
0.174000,-87.6250,1020.8318,0,2,,-0.90
0.176000,-87.2500,1014.6502,0,2,,-0.90
0.178000,-88.8750,1007.6182,0,2,,-0.90
0.180000,-88.2500,1000.1599,0,2,,-0.90
0.182000,-86.2500,992.8521,0,2,,-0.90
0.184000,-89.7500,986.2062,0,2,,-0.90
0.186000,-91.2500,980.4742,0,2,,-0.90
0.188000,-89.2500,975.5554,0,2,,-0.90
0.190000,-88.6250,971.0358,0,2,,-0.90
0.192000,-83.5000,966.3477,0,2,,-0.90
0.194000,-88.2500,960.9873,0,2,,-0.90
0.196000,-86.7500,954.7078,0,2,,-0.90
0.198000,-87.7500,947.6162,0,2,,-0.90
0.200000,-86.8750,940.1383,0,2,,-0.90
0.202000,-86.2500,932.8656,0,2,,-0.90
0.204000,-88.2500,926.3411,0,2,,-0.90
0.206000,-95.2500,920.8610,0,2,,-0.90
0.208000,-93.1250,916.3653,0,2,,-0.90
0.210000,-90.7500,912.4592,0,2,,-0.90
0.212000,-77.1250,908.5575,0,2,,-0.90
0.214000,-81.7500,904.0988,0,2,,-0.90
0.216000,-83.0000,898.7442,0,2,,-0.90
0.218000,-86.0000,892.4881,0,2,,-0.90
0.220000,-84.3750,885.6403,0,2,,-0.90
0.222000,-82.0000,878.6945,0,2,,-0.90
0.224000,-86.7500,872.1373,0,2,,-0.90
0.226000,-88.2500,866.2707,0,2,,-0.90
0.228000,-84.5000,861.1119,0,2,,-0.90
0.230000,-85.6250,856.4050,0,2,,-0.90
0.232000,-82.5000,851.7329,0,2,,-0.90
0.234000,-85.2500,846.6857,0,2,,-0.90
0.236000,-82.6250,841.0177,0,2,,-0.90
0.238000,-83.2500,834.7362,0,2,,-0.90
0.240000,-83.1250,828.0911,0,2,,-0.90
0.242000,-82.2500,821.4731,0,2,,-0.90
0.244000,-84.1250,815.2622,0,2,,-0.90
0.246000,-86.8750,809.6834,0,2,,-0.90
0.248000,-84.2500,804.7249,0,2,,-0.90
0.250000,-85.2500,800.1472,0,2,,-0.90
0.252000,-81.7500,795.5779,0,2,,-0.90
0.254000,-84.2500,790.6538,0,2,,-0.90
0.256000,-84.1250,785.1560,0,2,,-0.90
0.258000,-78.1250,779.0863,0,2,,-0.90
0.260000,-81.2500,772.6588,0,2,,-0.90
0.262000,-83.3750,766.2106,0,2,,-0.90
0.264000,-83.6250,760.0676,0,2,,-0.90
0.266000,-87.2500,754.4186,0,2,,-0.90
0.268000,-81.0000,749.2443,0,2,,-0.90
0.270000,-83.7500,744.3303,0,2,,-0.90
0.272000,-81.1250,739.3543,0,2,,-0.90
0.274000,-86.3750,734.0122,0,2,,-0.90
0.276000,-84.2500,728.1328,0,2,,-0.90
0.278000,-84.2500,721.7392,0,2,,-0.90
0.280000,-84.0000,715.0362,0,2,,-0.90
0.282000,-82.1250,708.3321,0,2,,-0.90
0.284000,-87.6250,701.9254,0,2,,-0.90
0.286000,-89.2500,696.0003,0,2,,-0.90
0.288000,-86.3750,690.5691,0,2,,-0.90
0.290000,-85.8750,685.4834,0,2,,-0.90
0.292000,-86.6250,680.5059,0,2,,-0.90
0.294000,-86.8750,675.4115,0,2,,-0.90
0.296000,-89.5000,670.0749,0,2,,-0.90
0.298000,-89.5000,664.5115,0,2,,-0.90
0.300000,-87.3750,658.8567,0,2,,-0.90
0.302000,-85.3750,653.2978,0,2,,-0.90
0.304000,-86.1250,647.9865,0,2,,-0.90
0.306000,-82.8750,642.9677,0,2,,-0.90
0.308000,-82.6250,638.1530,0,2,,-0.90
0.310000,-89.0000,633.3458,0,2,,-0.90
0.312000,-87.8750,628.3106,0,2,,-0.90
0.314000,-88.5000,622.8603,0,2,,-0.90
0.316000,-87.6250,616.9302,0,2,,-0.90
0.318000,-87.2500,610.6127,0,2,,-0.90
0.320000,-86.7500,604.1373,0,2,,-0.90
0.322000,-86.8750,597.8018,0,2,,-0.90
0.324000,-89.8750,591.8748,0,2,,-0.90
0.326000,-92.2500,586.5061,0,2,,-0.90
0.328000,-92.2500,581.6758,0,2,,-0.90
0.330000,-91.5000,577.2031,0,2,,-0.90
0.332000,-89.8750,572.8131,0,2,,-0.90
0.334000,-87.0000,568.2379,0,2,,-0.90
0.336000,-85.5000,563.3122,0,2,,-0.90
0.338000,-89.6250,558.0284,0,2,,-0.90
0.340000,-89.5000,552.5285,0,2,,-0.90
0.342000,-87.8750,547.0385,0,2,,-0.90
0.344000,-90.7500,541.7731,0,2,,-0.90
0.346000,-91.8750,536.8466,0,2,,-0.90
0.348000,-87.2500,532.2277,0,2,,-0.90
0.350000,-87.7500,527.7519,0,2,,-0.90
0.352000,-89.8750,523.1865,0,2,,-0.90
0.354000,-87.3750,518.3226,0,2,,-0.90
0.356000,-88.5000,513.0575,0,2,,-0.90
0.358000,-88.5000,507.4372,0,2,,-0.90
0.360000,-88.7500,501.6452,0,2,,-0.90
0.362000,-90.2500,495.9400,0,2,,-0.90
0.364000,-92.1250,490.5668,0,2,,-0.90
0.366000,-91.7500,485.6739,0,2,,-0.90
0.368000,-91.5000,481.2666,0,2,,-0.90
0.370000,-87.8750,477.2116,0,2,,-0.90
0.372000,-90.0000,473.2904,0,2,,-0.90
0.374000,-89.8750,469.2788,0,2,,-0.90
0.376000,-87.0000,465.0223,0,2,,-0.90
0.378000,-86.0000,460.4807,0,2,,-0.90
0.380000,-86.7500,455.7282,0,2,,-0.90
0.382000,-87.5000,450.9094,0,2,,-0.90
0.384000,-87.3750,446.1726,0,2,,-0.90
0.386000,-86.8750,441.6047,0,2,,-0.90
0.388000,-86.8750,437.1940,0,2,,-0.90
0.390000,-88.3750,432.8355,0,2,,-0.90
0.392000,-87.3750,428.3748,0,2,,-0.90
0.394000,-84.2500,423.6742,0,2,,-0.90
0.396000,-87.8750,418.6738,0,2,,-0.90
0.398000,-86.5000,413.4253,0,2,,-0.90
0.400000,-84.8750,408.0817,0,2,,-0.90
0.402000,-88.1250,402.8477,0,2,,-0.90
0.404000,-94.8750,397.9075,0,2,,-0.90
0.406000,-88.6250,393.3580,0,2,,-0.90
0.408000,-89.8750,389.1751,0,2,,-0.90
0.410000,-84.2500,385.2252,0,2,,-0.90
0.412000,-87.7500,381.3182,0,2,,-0.90
0.414000,-85.8750,377.2789,0,2,,-0.90
0.416000,-89.0000,373.0087,0,2,,-0.90
0.418000,-87.5000,368.5162,0,2,,-0.90
0.420000,-84.2500,363.9064,0,2,,-0.90
0.422000,-86.6250,359.3353,0,2,,-0.90
0.424000,-87.7500,354.9465,0,2,,-0.90
0.426000,-87.8750,350.8117,0,2,,-0.90
0.428000,-88.5000,346.8988,0,2,,-0.90
0.430000,-85.5000,343.0790,0,2,,-0.90
0.432000,-85.7500,339.1721,0,2,,-0.90
0.434000,-83.6250,335.0134,0,2,,-0.90
0.436000,-84.1250,330.5178,0,2,,-0.90
0.438000,-83.5000,325.7155,0,2,,-0.90
0.440000,-83.8750,320.7453,0,2,,-0.90
0.442000,-90.7500,315.8065,0,2,,-0.90
0.444000,-91.7500,311.0881,0,2,,-0.90
0.446000,-87.3750,306.7025,0,2,,-0.90
0.448000,-87.7500,302.6490,0,2,,-0.90
0.450000,-86.5000,298.8220,0,2,,-0.90
0.452000,-86.2500,295.0569,0,2,,-0.90
0.454000,-84.8750,291.1960,0,2,,-0.90
0.456000,-85.7500,287.1475,0,2,,-0.90
0.458000,-85.6250,282.9158,0,2,,-0.90
0.460000,-85.1250,278.5945,0,2,,-0.90
0.462000,-90.2500,274.3243,0,2,,-0.90
0.464000,-91.3750,270.2340,0,2,,-0.90
0.466000,-84.6250,266.3898,0,2,,-0.90
0.468000,-83.3750,262.7707,0,2,,-0.90
0.470000,-84.7500,259.2787,0,2,,-0.90
0.472000,-86.6250,255.7769,0,2,,-0.90
0.474000,-85.5000,252.1378,0,2,,-0.90
0.476000,-84.5000,248.2866,0,2,,-0.90
0.478000,-84.0000,244.2224,0,2,,-0.90
0.480000,-83.2500,240.0147,0,2,,-0.90
0.482000,-87.3750,235.7736,0,2,,-0.90
0.484000,-85.8750,231.6076,0,2,,-0.90
0.486000,-84.6250,227.5823,0,2,,-0.90
0.488000,-86.6250,223.6967,0,2,,-0.90
0.490000,-86.8750,219.8860,0,2,,-0.90
0.492000,-86.0000,216.0485,0,2,,-0.90
0.494000,-84.7500,212.0881,0,2,,-0.90
0.496000,-86.7500,207.9563,0,2,,-0.90
0.498000,-84.7500,203.6786,0,2,,-0.90
0.500000,-84.1250,199.3537,0,2,,-0.90
0.502000,-88.8750,195.1252,0,2,,-0.90
0.504000,-89.7500,191.1330,0,2,,-0.90
0.506000,-88.6250,187.4641,0,2,,-0.90
0.508000,-89.8750,184.1186,0,2,,-0.90
0.510000,-87.3750,181.0072,0,2,,-0.90
0.512000,-86.2500,177.9802,0,2,,-0.90
0.514000,-84.8750,174.8785,0,2,,-0.90
0.516000,-82.2500,171.5885,0,2,,-0.90
0.518000,-82.8750,168.0790,0,2,,-0.90
0.520000,-84.3750,164.4062,0,2,,-0.90
0.522000,-87.2500,160.6861,0,2,,-0.90
0.524000,-90.1250,157.0428,0,2,,-0.90
0.526000,-86.2500,153.5571,0,2,,-0.90
0.528000,-87.1250,150.2341,0,2,,-0.90
0.530000,-82.2500,147.0041,0,2,,-0.90
0.532000,-84.6250,143.7541,0,2,,-0.90
0.534000,-83.1250,140.3758,0,2,,-0.90
0.536000,-83.8750,136.8112,0,2,,-0.90
0.538000,-83.3750,133.0766,0,2,,-0.90
0.540000,-85.6250,129.2587,0,2,,-0.90
0.542000,-89.0000,125.4829,0,2,,-0.90
0.544000,-89.0000,121.8686,0,2,,-0.90
0.546000,-86.7500,118.4884,0,2,,-0.90
0.548000,-83.1250,115.3467,0,2,,-0.90
0.550000,-84.6250,112.3851,0,2,,-0.90
0.552000,-85.3750,109.5082,0,2,,-0.90
0.554000,-84.1250,106.6188,0,2,,-0.90
0.556000,-84.5000,103.6483,0,2,,-0.90
0.558000,-83.8750,100.5729,0,2,,-0.90
0.560000,-86.0000,97.4129,0,2,,-0.90
0.562000,-85.6250,94.2162,0,2,,-0.90
0.564000,-85.0000,91.0353,0,2,,-0.90
0.566000,-79.6250,87.9077,0,2,,-0.90
0.568000,-81.7500,84.8445,0,2,,-0.90
0.570000,-86.7500,81.8296,0,2,,-0.90
0.572000,-86.5000,78.8280,0,2,,-0.90
0.574000,-84.1250,75.7997,0,2,,-0.90
0.576000,-81.1250,72.7163,0,2,,-0.90
0.578000,-82.1250,69.5746,0,2,,-0.90
0.580000,-84.1250,66.4010,0,2,,-0.90
0.582000,-86.8750,63.2431,0,2,,-0.90
0.584000,-83.3750,60.1526,0,2,,-0.90
0.586000,-83.5000,57.1666,0,2,,-0.90
0.588000,-81.0000,54.2964,0,2,,-0.90
0.590000,-86.5000,51.5267,0,2,,-0.90
0.592000,-82.1250,48.8240,0,2,,-0.90
0.594000,-82.7500,46.1511,0,2,,-0.90
0.596000,-83.3750,43.4794,0,2,,-0.90
0.598000,-81.3750,40.7968,0,2,,-0.90
0.600000,-84.2500,38.1051,0,2,,-0.90
0.602000,-86.5000,35.4111,0,2,,-0.90
0.604000,-78.6250,32.7149,0,2,,-0.90
0.606000,-79.5000,30.0022,0,2,,-0.90
0.608000,-80.2500,27.2445,0,2,,-0.90
0.610000,-86.8750,24.4053,0,2,,-0.90
0.612000,-81.8750,21.4526,0,2,,-0.90
0.614000,-81.1250,18.3728,0,2,,-0.90
0.616000,-80.8750,15.1843,0,2,,-0.90
0.618000,-82.7500,11.9425,0,2,,-0.90
0.620000,-85.3750,8.7322,0,2,,-0.90
0.622000,-87.2500,5.6474,0,2,,-0.90
0.624000,-84.2500,2.7640,0,2,,-0.90
0.626000,-84.1250,0.1170,0,2,,-0.90
0.628000,-82.3750,-2.3102,0,2,,-0.90
0.630000,-86.2500,-4.5817,0,2,,-0.90
0.632000,-82.7500,-6.7904,0,2,,-0.90
0.634000,-82.5000,-9.0325,0,2,,-0.90
0.636000,-82.5000,-11.3815,0,2,,-0.90
0.638000,-81.7500,-13.8697,0,2,,-0.90
0.640000,-84.0000,-16.4844,0,2,,-0.90
0.642000,-85.0000,-19.1782,0,2,,-0.90
0.644000,-82.3750,-21.8901,0,2,,-0.90
0.646000,-83.6250,-24.5696,0,2,,-0.90
0.648000,-83.5000,-27.1942,0,2,,-0.90
0.650000,-88.2500,-29.7746,0,2,,-0.90
0.652000,-82.1250,-32.3469,0,2,,-0.90
0.654000,-81.6250,-34.9516,0,2,,-0.90
0.656000,-84.2500,-37.6090,0,2,,-0.90
0.658000,-84.1250,-40.3014,0,2,,-0.90
0.660000,-85.2500,-42.9698,0,2,,-0.90
0.662000,-86.6250,-45.5282,0,2,,-0.90
0.664000,-85.2500,-47.8908,0,2,,-0.90
0.666000,-87.8750,-50.0022,0,2,,-0.90
0.668000,-83.7500,-51.8594,0,2,,-0.90
0.670000,-86.0000,-53.5183,0,2,,-0.90
0.672000,-82.5000,-55.0807,0,2,,-0.90
0.674000,-81.1250,-56.6673,0,2,,-0.90
0.676000,-81.7500,-58.3837,0,2,,-0.90
0.678000,-79.8750,-60.2932,0,2,,-0.90
0.680000,-83.7500,-62.4033,0,2,,-0.90
0.682000,-83.1250,-64.6718,0,2,,-0.90
0.684000,-82.7500,-67.0264,0,2,,-0.90
0.686000,-82.3750,-69.3918,0,2,,-0.90
0.688000,-84.1250,-71.7126,0,2,,-0.90
0.690000,-82.6250,-73.9660,0,2,,-0.90
0.692000,-81.5000,-76.1610,0,2,,-0.90
0.694000,-83.0000,-78.3263,0,2,,-0.90
0.696000,-81.2500,-80.4927,0,2,,-0.90
0.698000,-84.5000,-82.6788,0,2,,-0.90
0.700000,-83.8750,-84.8840,0,2,,-0.90
0.702000,-86.1250,-87.0907,0,2,,-0.90
0.704000,-84.8750,-89.2722,0,2,,-0.90
0.706000,-83.2500,-91.4010,0,2,,-0.90
0.708000,-81.8750,-93.4519,0,2,,-0.90
0.710000,-85.7500,-95.3994,0,2,,-0.90
0.712000,-82.6250,-97.2118,0,2,,-0.90
0.714000,-82.7500,-98.8437,0,2,,-0.90
0.716000,-82.3750,-100.2350,0,2,,-0.90
0.718000,-80.6250,-101.3165,0,2,,-0.90
0.720000,-86.8750,-102.0265,0,2,,-0.90
0.722000,-85.6250,-102.3323,0,2,,-0.90
0.724000,-76.5000,-102.2489,0,2,,-0.90
0.726000,-70.8750,-101.8480,0,2,,-0.90
0.728000,-69.8750,-101.2547,0,2,,-0.90
0.730000,-72.3750,-100.6369,0,2,,-0.90
0.732000,-70.8750,-100.1910,0,2,,-0.90
0.734000,-68.2500,-100.1273,0,2,,-0.90
0.736000,-66.0000,-100.6509,0,2,,-0.90
0.738000,-65.2500,-101.9387,0,2,,-0.90
0.740000,-67.5000,-104.1129,0,2,,-0.90
0.742000,-68.2500,-107.2170,0,2,,-0.90
0.744000,-68.2500,-111.1993,0,2,,-0.90
0.746000,-70.3750,-115.9063,0,2,,-0.90
0.748000,-76.3750,-121.0914,0,2,,-0.90
0.750000,-78.2500,-126.4372,0,2,,-0.90
0.752000,-81.3750,-131.5920,0,2,,-0.90
0.754000,-88.7500,-136.2153,0,2,,-0.90
0.756000,-90.5000,-140.0271,0,2,,-0.90
0.758000,-91.2500,-142.8515,0,2,,-0.90
0.760000,-93.6250,-144.6473,0,2,,-0.90
0.762000,-92.1250,-145.5165,0,2,,-0.90
0.764000,-91.2500,-145.6875,0,2,,-0.90
0.766000,-85.1250,-145.4720,0,2,,-0.90
0.768000,-83.1250,-145.2040,0,2,,-0.90
0.770000,-77.5000,-145.1713,0,2,,-0.90
0.772000,-77.6250,-145.5597,0,2,,-0.90
0.774000,-83.5000,-146.4232,0,2,,-0.90
0.776000,-82.8750,-147.6896,0,2,,-0.90
0.778000,-86.0000,-149.1981,0,2,,-0.90
0.780000,-85.3750,-150.7545,0,2,,-0.90
0.782000,-83.5000,-152.1880,0,2,,-0.90
0.784000,-83.8750,-153.3941,0,2,,-0.90
0.786000,-80.8750,-154.3534,0,2,,-0.90
0.788000,-82.3750,-155.1259,0,2,,-0.90
0.790000,-77.1250,-155.8238,0,2,,-0.90
0.792000,-76.3750,-156.5717,0,2,,-0.90
0.794000,-79.8750,-157.4682,0,2,,-0.90
0.796000,-78.8750,-158.5581,0,2,,-0.90
0.798000,-80.5000,-159.8236,0,2,,-0.90
0.800000,-82.6250,-161.1954,0,2,,-0.90
0.802000,-80.3750,-162.5786,0,2,,-0.90
0.804000,-83.3750,-163.8832,0,2,,-0.90
0.806000,-79.8750,-165.0509,0,2,,-0.90
0.808000,-78.8750,-166.0698,0,2,,-0.90
0.810000,-79.2500,-166.9730,0,2,,-0.90
0.812000,-78.5000,-167.8242,0,2,,-0.90
0.814000,-77.7500,-168.6937,0,2,,-0.90
0.816000,-75.2500,-169.6360,0,2,,-0.90
0.818000,-82.1250,-170.6748,0,2,,-0.90
0.820000,-82.3750,-171.8008,0,2,,-0.90
0.822000,-79.3750,-172.9807,0,2,,-0.90
0.824000,-81.5000,-174.1727,0,2,,-0.90
0.826000,-78.0000,-175.3403,0,2,,-0.90
0.828000,-80.5000,-176.4603,0,2,,-0.90
0.830000,-77.7500,-177.5222,0,2,,-0.90
0.832000,-77.5000,-178.5224,0,2,,-0.90
0.834000,-79.2500,-179.4553,0,2,,-0.90
0.836000,-78.1250,-180.3083,0,2,,-0.90
0.838000,-80.5000,-181.0631,0,2,,-0.90
0.840000,-83.1250,-181.7048,0,2,,-0.90
0.842000,-81.8750,-182.2338,0,2,,-0.90
0.844000,-79.1250,-182.6750,0,2,,-0.90
0.846000,-74.8750,-183.0781,0,2,,-0.90
0.848000,-76.5000,-183.5073,0,2,,-0.90
0.850000,-75.3750,-184.0244,0,2,,-0.90
0.852000,-76.1250,-184.6722,0,2,,-0.90
0.854000,-75.8750,-185.4613,0,2,,-0.90
0.856000,-75.5000,-186.3673,0,2,,-0.90
0.858000,-77.2500,-187.3369,0,2,,-0.90
0.860000,-83.1250,-188.3044,0,2,,-0.90
0.862000,-80.7500,-189.2103,0,2,,-0.90
0.864000,-77.5000,-190.0169,0,2,,-0.90
0.866000,-72.7500,-190.7141,0,2,,-0.90
0.868000,-77.7500,-191.3144,0,2,,-0.90
0.870000,-76.1250,-191.8413,0,2,,-0.90
0.872000,-74.1250,-192.3188,0,2,,-0.90
0.874000,-75.5000,-192.7636,0,2,,-0.90
0.876000,-77.1250,-193.1847,0,2,,-0.90
0.878000,-79.0000,-193.5883,0,2,,-0.90
0.880000,-80.7500,-193.9855,0,2,,-0.90
0.882000,-76.8750,-194.3962,0,2,,-0.90
0.884000,-73.2500,-194.8465,0,2,,-0.90
0.886000,-72.2500,-195.3585,0,2,,-0.90
0.888000,-74.5000,-195.9386,0,2,,-0.90
0.890000,-74.1250,-196.5694,0,2,,-0.90
0.892000,-74.8750,-197.2109,0,2,,-0.90
0.894000,-75.1250,-197.8098,0,2,,-0.90
0.896000,-76.3750,-198.3131,0,2,,-0.90
0.898000,-78.3750,-198.6834,0,2,,-0.90
0.900000,-79.0000,-198.9097,0,2,,-0.90
0.902000,-74.6250,-199.0105,0,2,,-0.90
0.904000,-69.8750,-199.0287,0,2,,-0.90
0.906000,-71.0000,-199.0215,0,2,,-0.90
0.908000,-76.2500,-199.0491,0,2,,-0.90
0.910000,-71.7500,-199.1677,0,2,,-0.90
0.912000,-73.2500,-199.4241,0,2,,-0.90
0.914000,-71.3750,-199.8509,0,2,,-0.90
0.916000,-71.5000,-200.4593,0,2,,-0.90
0.918000,-75.2500,-201.2337,0,2,,-0.90
0.920000,-75.0000,-202.1301,0,2,,-0.90
0.922000,-74.8750,-203.0811,0,2,,-0.90
0.924000,-73.3750,-204.0057,0,2,,-0.90
0.926000,-76.5000,-204.8238,0,2,,-0.90
0.928000,-76.5000,-205.4699,0,2,,-0.90
0.930000,-74.6250,-205.9035,0,2,,-0.90
0.932000,-71.0000,-206.1135,0,2,,-0.90
0.934000,-75.5000,-206.1170,0,2,,-0.90
0.936000,-76.6250,-205.9550,0,2,,-0.90
0.938000,-77.5000,-205.6863,0,2,,-0.90
0.940000,-73.3750,-205.3819,0,2,,-0.90
0.942000,-74.0000,-205.1162,0,2,,-0.90
0.944000,-70.8750,-204.9577,0,2,,-0.90
0.946000,-73.5000,-204.9591,0,2,,-0.90
0.948000,-72.3750,-205.1499,0,2,,-0.90
0.950000,-69.6250,-205.5315,0,2,,-0.90
0.952000,-71.8750,-206.0759,0,2,,-0.90
0.954000,-72.1250,-206.7291,0,2,,-0.90
0.956000,-73.5000,-207.4204,0,2,,-0.90
0.958000,-76.7500,-208.0774,0,2,,-0.90
0.960000,-76.8750,-208.6440,0,2,,-0.90
0.962000,-78.3750,-209.0966,0,2,,-0.90
0.964000,-73.3750,-209.4515,0,2,,-0.90
0.966000,-79.5000,-209.7592,0,2,,-0.90
0.968000,-71.7500,-210.0870,0,2,,-0.90
0.970000,-72.8750,-210.4919,0,2,,-0.90
0.972000,-71.7500,-210.9955,0,2,,-0.90
0.974000,-74.8750,-211.5700,0,2,,-0.90
0.976000,-78.2500,-212.1420,0,2,,-0.90
0.978000,-82.6250,-212.6163,0,2,,-0.90
0.980000,-81.2500,-212.9087,0,2,,-0.90
0.982000,-81.3750,-212.9771,0,2,,-0.90
0.984000,-75.5000,-212.8368,0,2,,-0.90
0.986000,-76.8750,-212.5568,0,2,,-0.90
0.988000,-74.6250,-212.2391,0,2,,-0.90
0.990000,-75.2500,-211.9891,0,2,,-0.90
0.992000,-75.6250,-211.8876,0,2,,-0.90
0.994000,-73.7500,-211.9713,0,2,,-0.90
0.996000,-77.2500,-212.2273,0,2,,-0.90
0.998000,-81.0000,-212.6032,0,2,,-0.90
1.000000,-80.8750,-213.0265,0,2,,-0.90
1.002000,-80.1250,-213.4293,0,2,,-0.90
1.004000,-76.2500,-213.7676,0,2,,-0.90
1.006000,-80.6250,-214.0300,0,2,,-0.90
1.008000,-80.1250,-214.2358,0,2,,-0.90
1.010000,-76.1250,-214.4226,0,2,,-0.90
1.012000,-79.3750,-214.6283,0,2,,-0.90
1.014000,-78.0000,-214.8728,0,2,,-0.90
1.016000,-79.3750,-215.1464,0,2,,-0.90
1.018000,-84.8750,-215.4085,0,2,,-0.90
1.020000,-83.0000,-215.5983,0,2,,-0.90
1.022000,-83.6250,-215.6527,0,2,,-0.90
1.024000,-78.8750,-215.5250,0,2,,-0.90
1.026000,-83.1250,-215.1985,0,2,,-0.90
1.028000,-81.3750,-214.6927,0,2,,-0.90
1.030000,-81.6250,-214.0588,0,2,,-0.90
1.032000,-76.8750,-213.3678,0,2,,-0.90
1.034000,-75.0000,-212.6922,0,2,,-0.90
1.036000,-80.0000,-212.0902,0,2,,-0.90
1.038000,-83.7500,-211.5974,0,2,,-0.90
1.040000,-80.7500,-211.2280,0,2,,-0.90
1.042000,-81.0000,-210.9806,0,2,,-0.90
1.044000,-75.7500,-210.8448,0,2,,-0.90
1.046000,-79.3750,-210.8023,0,2,,-0.90
1.048000,-77.6250,-210.8276,0,2,,-0.90
1.050000,-79.0000,-210.8869,0,2,,-0.90
1.052000,-79.3750,-210.9405,0,2,,-0.90
1.054000,-79.8750,-210.9479,0,2,,-0.90
1.056000,-82.0000,-210.8741,0,2,,-0.90
1.058000,-83.1250,-210.6975,0,2,,-0.90
1.060000,-81.0000,-210.4143,0,2,,-0.90
1.062000,-83.0000,-210.0403,0,2,,-0.90
1.064000,-77.8750,-209.6062,0,2,,-0.90
1.066000,-80.6250,-209.1500,0,2,,-0.90
1.068000,-79.2500,-208.7075,0,2,,-0.90
1.070000,-79.5000,-208.3029,0,2,,-0.90
1.072000,-78.6250,-207.9438,0,2,,-0.90
1.074000,-79.3750,-207.6197,0,2,,-0.90
1.076000,-83.0000,-207.3056,0,2,,-0.90
1.078000,-83.5000,-206.9690,0,2,,-0.90
1.080000,-79.5000,-206.5796,0,2,,-0.90
1.082000,-78.2500,-206.1159,0,2,,-0.90
1.084000,-81.7500,-205.5713,0,2,,-0.90
1.086000,-81.2500,-204.9567,0,2,,-0.90
1.088000,-79.2500,-204.2999,0,2,,-0.90
1.090000,-77.8750,-203.6405,0,2,,-0.90
1.092000,-77.6250,-203.0208,0,2,,-0.90
1.094000,-78.7500,-202.4733,0,2,,-0.90
1.096000,-79.1250,-202.0127,0,2,,-0.90
1.098000,-83.3750,-201.6316,0,2,,-0.90
1.100000,-79.5000,-201.3039,0,2,,-0.90
1.102000,-76.1250,-200.9918,0,2,,-0.90
1.104000,-80.6250,-200.6560,0,2,,-0.90
1.106000,-81.2500,-200.2671,0,2,,-0.90
1.108000,-79.2500,-199.8153,0,2,,-0.90
1.110000,-80.3750,-199.3156,0,2,,-0.90
1.112000,-78.5000,-198.8044,0,2,,-0.90
1.114000,-77.7500,-198.3293,0,2,,-0.90
1.116000,-81.1250,-197.9345,0,2,,-0.90
1.118000,-82.1250,-197.6469,0,2,,-0.90
1.120000,-80.6250,-197.4671,0,2,,-0.90
1.122000,-80.5000,-197.3664,0,2,,-0.90
1.124000,-81.5000,-197.2891,0,2,,-0.90
1.126000,-80.8750,-197.1602,0,2,,-0.90
1.128000,-79.7500,-196.8977,0,2,,-0.90
1.130000,-80.6250,-196.4288,0,2,,-0.90
1.132000,-82.2500,-195.7067,0,2,,-0.90
1.134000,-86.2500,-194.7267,0,2,,-0.90
1.136000,-82.2500,-193.5336,0,2,,-0.90
1.138000,-81.3750,-192.2182,0,2,,-0.90
1.140000,-77.6250,-190.9002,0,2,,-0.90
1.142000,-76.5000,-189.7022,0,2,,-0.90
1.144000,-78.7500,-188.7238,0,2,,-0.90
1.146000,-77.3750,-188.0229,0,2,,-0.90
1.148000,-77.5000,-187.6090,0,2,,-0.90
1.150000,-78.7500,-187.4471,0,2,,-0.90
1.152000,-80.3750,-187.4700,0,2,,-0.90
1.154000,-81.1250,-187.5934,0,2,,-0.90
1.156000,-82.6250,-187.7305,0,2,,-0.90
1.158000,-83.5000,-187.8019,0,2,,-0.90
1.160000,-82.2500,-187.7414,0,2,,-0.90
1.162000,-79.3750,-187.4979,0,2,,-0.90
1.164000,-82.2500,-187.0363,0,2,,-0.90
1.166000,-84.3750,-186.3412,0,2,,-0.90
1.168000,-83.3750,-185.4227,0,2,,-0.90
1.170000,-81.0000,-184.3199,0,2,,-0.90
1.172000,-82.3750,-183.1000,0,2,,-0.90
1.174000,-83.3750,-181.8492,0,2,,-0.90
1.176000,-80.3750,-180.6562,0,2,,-0.90
1.178000,-78.7500,-179.5935,0,2,,-0.90
1.180000,-77.8750,-178.7014,0,2,,-0.90
1.182000,-78.3750,-177.9816,0,2,,-0.90
1.184000,-83.3750,-177.4032,0,2,,-0.90
1.186000,-82.5000,-176.9186,0,2,,-0.90
1.188000,-79.0000,-176.4824,0,2,,-0.90
1.190000,-79.7500,-176.0647,0,2,,-0.90
1.192000,-79.7500,-175.6548,0,2,,-0.90
1.194000,-82.0000,-175.2577,0,2,,-0.90
1.196000,-85.5000,-174.8844,0,2,,-0.90
1.198000,-82.5000,-174.5419,0,2,,-0.90
1.200000,-82.6250,-174.2217,0,2,,-0.90
1.202000,-79.6250,-173.8922,0,2,,-0.90
1.204000,-82.2500,-173.4961,0,2,,-0.90
1.206000,-82.7500,-172.9588,0,2,,-0.90
1.208000,-82.7500,-172.2066,0,2,,-0.90
1.210000,-85.1250,-171.1915,0,2,,-0.90
1.212000,-84.6250,-169.9133,0,2,,-0.90
1.214000,-84.1250,-168.4304,0,2,,-0.90
1.216000,-87.1250,-166.8533,0,2,,-0.90
1.218000,-75.6250,-165.3200,0,2,,-0.90
1.220000,-74.5000,-163.9596,0,2,,-0.90
1.222000,-76.2500,-162.8589,0,2,,-0.90
1.224000,-83.5000,-162.0435,0,2,,-0.90
1.226000,-81.0000,-161.4803,0,2,,-0.90
1.228000,-80.6250,-161.0967,0,2,,-0.90
1.230000,-78.7500,-160.8055,0,2,,-0.90
1.232000,-80.1250,-160.5269,0,2,,-0.90
1.234000,-83.1250,-160.2025,0,2,,-0.90
1.236000,-85.2500,-159.8021,0,2,,-0.90
1.238000,-82.2500,-159.3226,0,2,,-0.90
1.240000,-82.7500,-158.7798,0,2,,-0.90
1.242000,-80.3750,-158.1955,0,2,,-0.90
1.244000,-82.7500,-157.5846,0,2,,-0.90
1.246000,-81.1250,-156.9458,0,2,,-0.90
1.248000,-83.7500,-156.2606,0,2,,-0.90
1.250000,-82.7500,-155.4989,0,2,,-0.90
1.252000,-81.1250,-154.6308,0,2,,-0.90
1.254000,-86.5000,-153.6389,0,2,,-0.90
1.256000,-88.5000,-152.5281,0,2,,-0.90
1.258000,-81.2500,-151.3284,0,2,,-0.90
1.260000,-79.0000,-150.0886,0,2,,-0.90
1.262000,-77.8750,-148.8634,0,2,,-0.90
1.264000,-84.1250,-147.7015,0,2,,-0.90
1.266000,-82.0000,-146.6371,0,2,,-0.90
1.268000,-81.5000,-145.6881,0,2,,-0.90
1.270000,-78.1250,-144.8556,0,2,,-0.90
1.272000,-80.2500,-144.1244,0,2,,-0.90
1.274000,-81.1250,-143.4634,0,2,,-0.90
1.276000,-84.1250,-142.8306,0,2,,-0.90
1.278000,-82.0000,-142.1810,0,2,,-0.90
1.280000,-82.5000,-141.4774,0,2,,-0.90
1.282000,-81.8750,-140.6995,0,2,,-0.90
1.284000,-83.3750,-139.8482,0,2,,-0.90
1.286000,-80.0000,-138.9436,0,2,,-0.90
1.288000,-81.7500,-138.0170,0,2,,-0.90
1.290000,-79.5000,-137.0986,0,2,,-0.90
1.292000,-79.0000,-136.2064,0,2,,-0.90
1.294000,-83.5000,-135.3408,0,2,,-0.90
1.296000,-85.0000,-134.4870,0,2,,-0.90
1.298000,-81.2500,-133.6248,0,2,,-0.90
1.300000,-82.1250,-132.7415,0,2,,-0.90
1.302000,-82.3750,-131.8415,0,2,,-0.90
1.304000,-84.5000,-130.9499,0,2,,-0.90
1.306000,-79.7500,-130.1079,0,2,,-0.90
1.308000,-77.3750,-129.3609,0,2,,-0.90
1.310000,-79.8750,-128.7431,0,2,,-0.90
1.312000,-85.5000,-128.2653,0,2,,-0.90
1.314000,-83.5000,-127.9104,0,2,,-0.90
1.316000,-86.3750,-127.6367,0,2,,-0.90
1.318000,-82.8750,-127.3866,0,2,,-0.90
1.320000,-85.3750,-127.0967,0,2,,-0.90
1.322000,-83.3750,-126.7084,0,2,,-0.90
1.324000,-88.1250,-126.1780,0,2,,-0.90
1.326000,-85.6250,-125.4848,0,2,,-0.90
1.328000,-86.1250,-124.6332,0,2,,-0.90
1.330000,-83.6250,-123.6498,0,2,,-0.90
1.332000,-85.2500,-122.5737,0,2,,-0.90
1.334000,-84.1250,-121.4456,0,2,,-0.90
1.336000,-88.6250,-120.2988,0,2,,-0.90
1.338000,-86.6250,-119.1564,0,2,,-0.90
1.340000,-83.6250,-118.0312,0,2,,-0.90
1.342000,-83.5000,-116.9291,0,2,,-0.90
1.344000,-84.3750,-115.8521,0,2,,-0.90
1.346000,-84.2500,-114.8021,0,2,,-0.90
1.348000,-84.0000,-113.7828,0,2,,-0.90
1.350000,-81.3750,-112.8009,0,2,,-0.90
1.352000,-83.7500,-111.8650,0,2,,-0.90
1.354000,-85.7500,-110.9839,0,2,,-0.90
1.356000,-86.6250,-110.1648,0,2,,-0.90
1.358000,-86.5000,-109.4113,0,2,,-0.90
1.360000,-81.8750,-108.7198,0,2,,-0.90
1.362000,-81.7500,-108.0747,0,2,,-0.90
1.364000,-85.7500,-107.4466,0,2,,-0.90
1.366000,-83.7500,-106.7950,0,2,,-0.90
1.368000,-85.7500,-106.0776,0,2,,-0.90
1.370000,-85.8750,-105.2607,0,2,,-0.90
1.372000,-86.8750,-104.3297,0,2,,-0.90
1.374000,-85.5000,-103.2928,0,2,,-0.90
1.376000,-84.0000,-102.1791,0,2,,-0.90
1.378000,-86.5000,-101.0320,0,2,,-0.90
1.380000,-85.8750,-99.9004,0,2,,-0.90
1.382000,-83.2500,-98.8300,0,2,,-0.90
1.384000,-82.6250,-97.8560,0,2,,-0.90
1.386000,-83.5000,-96.9981,0,2,,-0.90
1.388000,-85.7500,-96.2571,0,2,,-0.90
1.390000,-82.0000,-95.6147,0,2,,-0.90
1.392000,-86.2500,-95.0359,0,2,,-0.90
1.394000,-88.8750,-94.4710,0,2,,-0.90
1.396000,-86.0000,-93.8599,0,2,,-0.90
1.398000,-84.8750,-93.1341,0,2,,-0.90
1.400000,-83.7500,-92.2209,0,2,,-0.90
1.402000,-89.7500,-91.0487,0,2,,-0.90
1.404000,-82.6250,-89.5553,0,2,,-0.90
1.406000,-83.2500,-87.6974,0,2,,-0.90
1.408000,-82.7500,-85.4596,0,2,,-0.90
1.410000,-80.1250,-82.8616,0,2,,-0.90
1.412000,-78.3750,-79.9614,0,2,,-0.90
1.414000,-78.0000,-76.8583,0,2,,-0.90
1.416000,-75.1250,-73.6929,0,2,,-0.90
1.418000,-74.1250,-70.6448,0,2,,-0.90
1.420000,-72.2500,-67.9240,0,2,,-0.90
1.422000,-71.8750,-65.7547,0,2,,-0.90
1.424000,-67.5000,-64.3481,0,2,,-0.90
1.426000,-66.7500,-63.8657,0,2,,-0.90
1.428000,-67.2500,-64.3818,0,2,,-0.90
1.430000,-70.3750,-65.8541,0,2,,-0.90
1.432000,-76.7500,-68.1130,0,2,,-0.90
1.434000,-80.8750,-70.8770,0,2,,-0.90
1.436000,-84.3750,-73.7909,0,2,,-0.90
1.438000,-90.1250,-76.4805,0,2,,-0.90
1.440000,-89.6250,-78.6111,0,2,,-0.90
1.442000,-94.8750,-79.9394,0,2,,-0.90
1.444000,-94.6250,-80.3459,0,2,,-0.90
1.446000,-93.0000,-79.8447,0,2,,-0.90
1.448000,-92.8750,-78.5667,0,2,,-0.90
1.450000,-89.5000,-76.7239,0,2,,-0.90
1.452000,-90.0000,-74.5622,0,2,,-0.90
1.454000,-93.6250,-72.3163,0,2,,-0.90
1.456000,-89.6250,-70.1742,0,2,,-0.90
1.458000,-88.0000,-68.2554,0,2,,-0.90
1.460000,-83.0000,-66.6053,0,2,,-0.90
1.462000,-87.6250,-65.2030,0,2,,-0.90
1.464000,-86.5000,-63.9829,0,2,,-0.90
1.466000,-86.6250,-62.8620,0,2,,-0.90
1.468000,-86.7500,-61.7673,0,2,,-0.90
1.470000,-83.2500,-60.6550,0,2,,-0.90
1.472000,-85.7500,-59.5162,0,2,,-0.90
1.474000,-87.3750,-58.3727,0,2,,-0.90
1.476000,-84.1250,-57.2636,0,2,,-0.90
1.478000,-83.1250,-56.2309,0,2,,-0.90
1.480000,-83.7500,-55.3055,0,2,,-0.90
1.482000,-85.2500,-54.5008,0,2,,-0.90
1.484000,-85.1250,-53.8110,0,2,,-0.90
1.486000,-83.8750,-53.2150,0,2,,-0.90
1.488000,-84.5000,-52.6809,0,2,,-0.90
1.490000,-82.6250,-52.1700,0,2,,-0.90
1.492000,-85.8750,-51.6414,0,2,,-0.90
1.494000,-89.3750,-51.0579,0,2,,-0.90
1.496000,-88.0000,-50.3931,0,2,,-0.90
1.498000,-87.7500,-49.6383,0,2,,-0.90
1.500000,-84.8750,-48.8036,0,2,,-0.90
1.502000,-87.1250,-47.9136,0,2,,-0.90
1.504000,-85.8750,-46.9974,0,2,,-0.90
1.506000,-82.7500,-46.0770,0,2,,-0.90
1.508000,-83.2500,-45.1575,0,2,,-0.90
1.510000,-84.8750,-44.2238,0,2,,-0.90
1.512000,-88.2500,-43.2469,0,2,,-0.90
1.514000,-88.8750,-42.1975,0,2,,-0.90
1.516000,-87.0000,-41.0623,0,2,,-0.90
1.518000,-86.2500,-39.8545,0,2,,-0.90
1.520000,-84.0000,-38.6145,0,2,,-0.90
1.522000,-82.8750,-37.4006,0,2,,-0.90
1.524000,-81.1250,-36.2724,0,2,,-0.90
1.526000,-81.3750,-35.2741,0,2,,-0.90
1.528000,-83.0000,-34.4238,0,2,,-0.90
1.530000,-84.3750,-33.7105,0,2,,-0.90
1.532000,-84.8750,-33.1006,0,2,,-0.90
1.534000,-84.0000,-32.5500,0,2,,-0.90
1.536000,-85.6250,-32.0182,0,2,,-0.90
1.538000,-88.7500,-31.4793,0,2,,-0.90
1.540000,-85.5000,-30.9279,0,2,,-0.90
1.542000,-84.0000,-30.3745,0,2,,-0.90
1.544000,-81.5000,-29.8339,0,2,,-0.90
1.546000,-84.1250,-29.3088,0,2,,-0.90
1.548000,-81.6250,-28.7791,0,2,,-0.90
1.550000,-86.0000,-28.2006,0,2,,-0.90
1.552000,-91.3750,-27.5164,0,2,,-0.90
1.554000,-91.1250,-26.6765,0,2,,-0.90
1.556000,-84.7500,-25.6548,0,2,,-0.90
1.558000,-82.6250,-24.4589,0,2,,-0.90
1.560000,-85.6250,-23.1290,0,2,,-0.90
1.562000,-85.6250,-21.7286,0,2,,-0.90
1.564000,-83.0000,-20.3328,0,2,,-0.90
1.566000,-80.3750,-19.0140,0,2,,-0.90
1.568000,-80.8750,-17.8281,0,2,,-0.90
1.570000,-81.1250,-16.8043,0,2,,-0.90
1.572000,-84.2500,-15.9414,0,2,,-0.90
1.574000,-85.3750,-15.2123,0,2,,-0.90
1.576000,-83.1250,-14.5741,0,2,,-0.90
1.578000,-81.7500,-13.9801,0,2,,-0.90
1.580000,-84.0000,-13.3896,0,2,,-0.90
1.582000,-83.3750,-12.7732,0,2,,-0.90
1.584000,-80.2500,-12.1139,0,2,,-0.90
1.586000,-82.5000,-11.4038,0,2,,-0.90
1.588000,-80.6250,-10.6384,0,2,,-0.90
1.590000,-81.8750,-9.8126,0,2,,-0.90
1.592000,-85.1250,-8.9204,0,2,,-0.90
1.594000,-83.1250,-7.9596,0,2,,-0.90
1.596000,-84.5000,-6.9384,0,2,,-0.90
1.598000,-83.7500,-5.8812,0,2,,-0.90
1.600000,-83.2500,-4.8283,0,2,,-0.90
1.602000,-77.5000,-3.8280,0,2,,-0.90
1.604000,-76.5000,-2.9246,0,2,,-0.90
1.606000,-79.8750,-2.1450,0,2,,-0.90
1.608000,-81.1250,-1.4935,0,2,,-0.90
1.610000,-82.8750,-0.9540,0,2,,-0.90
1.612000,-84.6250,-0.4990,0,2,,-0.90
1.614000,-83.2500,-0.0987,0,2,,-0.90
1.616000,-81.0000,0.2739,0,2,,-0.90
1.618000,-81.1250,0.6425,0,2,,-0.90
1.620000,-83.7500,1.0306,0,2,,-0.90
1.622000,-81.6250,1.4626,0,2,,-0.90
1.624000,-82.1250,1.9632,0,2,,-0.90
1.626000,-81.7500,2.5534,0,2,,-0.90
1.628000,-80.2500,3.2457,0,2,,-0.90
1.630000,-86.3750,4.0374,0,2,,-0.90
1.632000,-85.6250,4.9061,0,2,,-0.90
1.634000,-82.1250,5.8074,0,2,,-0.90
1.636000,-86.2500,6.6804,0,2,,-0.90
1.638000,-79.7500,7.4593,0,2,,-0.90
1.640000,-80.8750,8.0886,0,2,,-0.90
1.642000,-81.7500,8.5389,0,2,,-0.90
1.644000,-80.2500,8.8156,0,2,,-0.90
1.646000,-83.8750,8.9598,0,2,,-0.90
1.648000,-83.5000,9.0396,0,2,,-0.90
1.650000,-83.7500,9.1358,0,2,,-0.90
1.652000,-87.0000,9.3237,0,2,,-0.90
1.654000,-87.5000,9.6562,0,2,,-0.90
1.656000,-87.8750,10.1514,0,2,,-0.90
1.658000,-84.0000,10.7883,0,2,,-0.90
1.660000,-84.3750,11.5120,0,2,,-0.90
1.662000,-84.5000,12.2460,0,2,,-0.90
1.664000,-85.0000,12.9103,0,2,,-0.90
1.666000,-83.1250,13.4394,0,2,,-0.90
1.668000,-83.1250,13.7981,0,2,,-0.90
1.670000,-85.7500,13.9896,0,2,,-0.90
1.672000,-90.5000,14.0560,0,2,,-0.90
1.674000,-86.2500,14.0681,0,2,,-0.90
1.676000,-87.6250,14.1087,0,2,,-0.90
1.678000,-88.2500,14.2537,0,2,,-0.90
1.680000,-90.6250,14.5539,0,2,,-0.90
1.682000,-89.0000,15.0234,0,2,,-0.90
1.684000,-87.5000,15.6378,0,2,,-0.90
1.686000,-83.1250,16.3428,0,2,,-0.90
1.688000,-86.3750,17.0699,0,2,,-0.90
1.690000,-88.1250,17.7533,0,2,,-0.90
1.692000,-94.5000,18.3406,0,2,,-0.90
1.694000,-88.6250,18.7988,0,2,,-0.90
1.696000,-89.0000,19.1175,0,2,,-0.90
1.698000,-85.1250,19.3118,0,2,,-0.90
1.700000,-88.7500,19.4238,0,2,,-0.90
1.702000,-88.7500,19.5195,0,2,,-0.90
1.704000,-89.6250,19.6773,0,2,,-0.90
1.706000,-88.8750,19.9721,0,2,,-0.90
1.708000,-88.1250,20.4560,0,2,,-0.90
1.710000,-93.7500,21.1429,0,2,,-0.90
1.712000,-96.0000,22.0003,0,2,,-0.90
1.714000,-90.0000,22.9523,0,2,,-0.90
1.716000,-86.1250,23.8979,0,2,,-0.90
1.718000,-85.8750,24.7376,0,2,,-0.90
1.720000,-88.1250,25.4015,0,2,,-0.90
1.722000,-85.8750,25.8663,0,2,,-0.90
1.724000,-89.6250,26.1581,0,2,,-0.90
1.726000,-88.7500,26.3401,0,2,,-0.90
1.728000,-89.5000,26.4924,0,2,,-0.90
1.730000,-91.3750,26.6897,0,2,,-0.90
1.732000,-93.2500,26.9844,0,2,,-0.90
1.734000,-89.7500,27.3983,0,2,,-0.90
1.736000,-90.1250,27.9234,0,2,,-0.90
1.738000,-89.3750,28.5305,0,2,,-0.90
1.740000,-89.3750,29.1814,0,2,,-0.90
1.742000,-87.1250,29.8405,0,2,,-0.90
1.744000,-88.3750,30.4828,0,2,,-0.90
1.746000,-89.0000,31.0965,0,2,,-0.90
1.748000,-88.8750,31.6814,0,2,,-0.90
1.750000,-91.1250,32.2443,0,2,,-0.90
1.752000,-91.7500,32.7931,0,2,,-0.90
1.754000,-86.3750,33.3330,0,2,,-0.90
1.756000,-89.6250,33.8638,0,2,,-0.90
1.758000,-89.8750,34.3797,0,2,,-0.90
1.760000,-88.8750,34.8688,0,2,,-0.90
1.762000,-87.2500,35.3147,0,2,,-0.90
1.764000,-88.6250,35.7001,0,2,,-0.90
1.766000,-86.6250,36.0126,0,2,,-0.90
1.768000,-87.3750,36.2512,0,2,,-0.90
1.770000,-90.7500,36.4288,0,2,,-0.90
1.772000,-92.1250,36.5711,0,2,,-0.90
1.774000,-91.8750,36.7101,0,2,,-0.90
1.776000,-90.2500,36.8769,0,2,,-0.90
1.778000,-89.8750,37.0958,0,2,,-0.90
1.780000,-89.6250,37.3812,0,2,,-0.90
1.782000,-89.1250,37.7372,0,2,,-0.90
1.784000,-88.2500,38.1573,0,2,,-0.90
1.786000,-91.3750,38.6258,0,2,,-0.90
1.788000,-91.7500,39.1182,0,2,,-0.90
1.790000,-90.7500,39.6050,0,2,,-0.90
1.792000,-92.2500,40.0570,0,2,,-0.90
1.794000,-91.3750,40.4545,0,2,,-0.90
1.796000,-88.3750,40.7971,0,2,,-0.90
1.798000,-87.8750,41.1086,0,2,,-0.90
1.800000,-90.7500,41.4364,0,2,,-0.90
1.802000,-89.0000,41.8396,0,2,,-0.90
1.804000,-91.6250,42.3717,0,2,,-0.90
1.806000,-90.2500,43.0619,0,2,,-0.90
1.808000,-89.6250,43.9022,0,2,,-0.90
1.810000,-88.8750,44.8451,0,2,,-0.90
1.812000,-90.5000,45.8112,0,2,,-0.90
1.814000,-88.5000,46.7061,0,2,,-0.90
1.816000,-84.3750,47.4398,0,2,,-0.90
1.818000,-87.5000,47.9451,0,2,,-0.90
1.820000,-89.3750,48.1918,0,2,,-0.90
1.822000,-86.0000,48.1923,0,2,,-0.90
1.824000,-85.8750,48.0019,0,2,,-0.90
1.826000,-84.7500,47.7115,0,2,,-0.90
1.828000,-89.2500,47.4338,0,2,,-0.90
1.830000,-94.2500,47.2813,0,2,,-0.90
1.832000,-92.6250,47.3415,0,2,,-0.90
1.834000,-92.1250,47.6549,0,2,,-0.90
1.836000,-89.5000,48.2059,0,2,,-0.90
1.838000,-89.6250,48.9265,0,2,,-0.90
1.840000,-87.0000,49.7148,0,2,,-0.90
1.842000,-86.7500,50.4596,0,2,,-0.90
1.844000,-86.1250,51.0644,0,2,,-0.90
1.846000,-84.1250,51.4655,0,2,,-0.90
1.848000,-92.5000,51.6397,0,2,,-0.90
1.850000,-91.8750,51.6008,0,2,,-0.90
1.852000,-89.3750,51.3912,0,2,,-0.90
1.854000,-89.7500,51.0719,0,2,,-0.90
1.856000,-88.6250,50.7143,0,2,,-0.90
1.858000,-91.7500,50.3937,0,2,,-0.90
1.860000,-91.3750,50.1818,0,2,,-0.90
1.862000,-90.2500,50.1386,0,2,,-0.90
1.864000,-90.3750,50.3037,0,2,,-0.90
1.866000,-90.0000,50.6906,0,2,,-0.90
1.868000,-93.1250,51.2822,0,2,,-0.90
1.870000,-94.3750,52.0311,0,2,,-0.90
1.872000,-89.8750,52.8640,0,2,,-0.90
1.874000,-90.2500,53.6927,0,2,,-0.90
1.876000,-88.8750,54.4293,0,2,,-0.90
1.878000,-89.6250,55.0032,0,2,,-0.90
1.880000,-86.1250,55.3752,0,2,,-0.90
1.882000,-86.5000,55.5442,0,2,,-0.90
1.884000,-88.7500,55.5468,0,2,,-0.90
1.886000,-87.6250,55.4469,0,2,,-0.90
1.888000,-92.0000,55.3186,0,2,,-0.90
1.890000,-92.5000,55.2275,0,2,,-0.90
1.892000,-91.8750,55.2149,0,2,,-0.90
1.894000,-91.6250,55.2907,0,2,,-0.90
1.896000,-89.5000,55.4380,0,2,,-0.90
1.898000,-90.6250,55.6243,0,2,,-0.90
1.900000,-87.5000,55.8186,0,2,,-0.90
1.902000,-89.0000,56.0044,0,2,,-0.90
1.904000,-89.7500,56.1874,0,2,,-0.90
1.906000,-89.6250,56.3930,0,2,,-0.90
1.908000,-91.7500,56.6568,0,2,,-0.90
1.910000,-92.5000,57.0090,0,2,,-0.90
1.912000,-89.6250,57.4610,0,2,,-0.90
1.914000,-91.6250,57.9944,0,2,,-0.90
1.916000,-90.2500,58.5598,0,2,,-0.90
1.918000,-89.6250,59.0837,0,2,,-0.90
1.920000,-89.5000,59.4851,0,2,,-0.90
1.922000,-84.3750,59.6973,0,2,,-0.90
1.924000,-85.1250,59.6910,0,2,,-0.90
1.926000,-87.2500,59.4884,0,2,,-0.90
1.928000,-91.5000,59.1630,0,2,,-0.90
1.930000,-92.3750,58.8226,0,2,,-0.90
1.932000,-91.1250,58.5802,0,2,,-0.90
1.934000,-93.6250,58.5238,0,2,,-0.90
1.936000,-92.0000,58.6918,0,2,,-0.90
1.938000,-91.6250,59.0638,0,2,,-0.90
1.940000,-88.3750,59.5682,0,2,,-0.90
1.942000,-88.7500,60.1037,0,2,,-0.90
1.944000,-85.6250,60.5694,0,2,,-0.90
1.946000,-85.1250,60.8922,0,2,,-0.90
1.948000,-92.0000,61.0440,0,2,,-0.90
1.950000,-92.7500,61.0431,0,2,,-0.90
1.952000,-90.5000,60.9427,0,2,,-0.90
1.954000,-90.6250,60.8126,0,2,,-0.90
1.956000,-88.1250,60.7214,0,2,,-0.90
1.958000,-90.7500,60.7216,0,2,,-0.90
1.960000,-89.8750,60.8399,0,2,,-0.90
1.962000,-90.3750,61.0728,0,2,,-0.90
1.964000,-88.0000,61.3878,0,2,,-0.90
1.966000,-88.7500,61.7316,0,2,,-0.90
1.968000,-89.2500,62.0415,0,2,,-0.90
1.970000,-91.6250,62.2587,0,2,,-0.90
1.972000,-90.2500,62.3409,0,2,,-0.90
1.974000,-86.7500,62.2708,0,2,,-0.90
1.976000,-90.6250,62.0609,0,2,,-0.90
1.978000,-90.0000,61.7517,0,2,,-0.90
1.980000,-89.6250,61.4047,0,2,,-0.90
1.982000,-91.1250,61.0904,0,2,,-0.90
1.984000,-89.0000,60.8754,0,2,,-0.90
1.986000,-91.3750,60.8115,0,2,,-0.90
1.988000,-93.0000,60.9264,0,2,,-0.90
1.990000,-92.8750,61.2204,0,2,,-0.90
1.992000,-90.0000,61.6673,0,2,,-0.90
1.994000,-90.2500,62.2203,0,2,,-0.90
1.996000,-89.5000,62.8220,0,2,,-0.90
1.998000,-88.2500,63.4142,0,2,,-0.90
2.000000,-87.1250,63.9454,0,2,,-0.90
2.002000,-89.3750,64.3763,0,2,,-0.90
2.004000,-84.2500,64.6806,0,2,,-0.90
2.006000,-89.1250,64.8449,0,2,,-0.90
2.008000,-91.0000,64.8668,0,2,,-0.90
2.010000,-88.2500,64.7537,0,2,,-0.90
2.012000,-87.6250,64.5241,0,2,,-0.90
2.014000,-86.8750,64.2090,0,2,,-0.90
2.016000,-89.2500,63.8533,0,2,,-0.90
2.018000,-90.1250,63.5119,0,2,,-0.90
2.020000,-88.0000,63.2414,0,2,,-0.90
2.022000,-89.5000,63.0889,0,2,,-0.90
2.024000,-89.0000,63.0813,0,2,,-0.90
2.026000,-91.0000,63.2176,0,2,,-0.90
2.028000,-90.2500,63.4667,0,2,,-0.90
2.030000,-90.3750,63.7728,0,2,,-0.90
2.032000,-88.6250,64.0658,0,2,,-0.90
2.034000,-87.2500,64.2767,0,2,,-0.90
2.036000,-89.7500,64.3531,0,2,,-0.90
2.038000,-87.6250,64.2705,0,2,,-0.90
2.040000,-86.5000,64.0372,0,2,,-0.90
2.042000,-89.6250,63.6921,0,2,,-0.90
2.044000,-87.5000,63.2946,0,2,,-0.90
2.046000,-91.8750,62.9108,0,2,,-0.90
2.048000,-93.7500,62.5976,0,2,,-0.90
2.050000,-88.3750,62.3912,0,2,,-0.90
2.052000,-91.8750,62.3009,0,2,,-0.90
2.054000,-88.2500,62.3102,0,2,,-0.90
2.056000,-92.8750,62.3826,0,2,,-0.90
2.058000,-90.2500,62.4707,0,2,,-0.90
2.060000,-88.2500,62.5255,0,2,,-0.90
2.062000,-89.0000,62.5070,0,2,,-0.90
2.064000,-89.2500,62.3929,0,2,,-0.90
2.066000,-90.3750,62.1832,0,2,,-0.90
2.068000,-91.6250,61.8999,0,2,,-0.90
2.070000,-92.3750,61.5814,0,2,,-0.90
2.072000,-92.2500,61.2736,0,2,,-0.90
2.074000,-89.1250,61.0212,0,2,,-0.90
2.076000,-92.0000,60.8589,0,2,,-0.90
2.078000,-92.1250,60.8052,0,2,,-0.90
2.080000,-90.8750,60.8584,0,2,,-0.90
2.082000,-91.8750,60.9963,0,2,,-0.90
2.084000,-88.5000,61.1812,0,2,,-0.90
2.086000,-92.3750,61.3692,0,2,,-0.90
2.088000,-90.5000,61.5211,0,2,,-0.90
2.090000,-88.2500,61.6118,0,2,,-0.90
2.092000,-91.1250,61.6347,0,2,,-0.90
2.094000,-90.5000,61.6005,0,2,,-0.90
2.096000,-91.8750,61.5291,0,2,,-0.90
2.098000,-88.6250,61.4402,0,2,,-0.90
2.100000,-91.7500,61.3446,0,2,,-0.90
2.102000,-89.2500,61.2410,0,2,,-0.90
2.104000,-87.5000,61.1174,0,2,,-0.90
2.106000,-90.1250,60.9570,0,2,,-0.90
2.108000,-93.6250,60.7443,0,2,,-0.90
2.110000,-91.7500,60.4702,0,2,,-0.90
2.112000,-90.5000,60.1357,0,2,,-0.90
2.114000,-87.2500,59.7544,0,2,,-0.90
2.116000,-94.1250,59.3527,0,2,,-0.90
2.118000,-92.5000,58.9664,0,2,,-0.90
2.120000,-89.8750,58.6340,0,2,,-0.90
2.122000,-90.7500,58.3879,0,2,,-0.90
2.124000,-92.6250,58.2477,0,2,,-0.90
2.126000,-93.3750,58.2143,0,2,,-0.90
2.128000,-93.6250,58.2683,0,2,,-0.90
2.130000,-92.8750,58.3741,0,2,,-0.90
2.132000,-92.2500,58.4912,0,2,,-0.90
2.134000,-87.6250,58.5890,0,2,,-0.90
2.136000,-91.2500,58.6633,0,2,,-0.90
2.138000,-90.2500,58.7468,0,2,,-0.90
2.140000,-90.5000,58.9096,0,2,,-0.90
2.142000,-88.2500,59.2494,0,2,,-0.90
2.144000,-89.7500,59.8732,0,2,,-0.90
2.146000,-88.7500,60.8727,0,2,,-0.90
2.148000,-90.0000,62.2995,0,2,,-0.90
2.150000,-83.0000,64.1438,0,2,,-0.90
2.152000,-81.6250,66.3216,0,2,,-0.90
2.154000,-83.1250,68.6732,0,2,,-0.90
2.156000,-78.7500,70.9737,0,2,,-0.90
2.158000,-72.8750,72.9569,0,2,,-0.90
2.160000,-73.7500,74.3495,0,2,,-0.90
2.162000,-70.2500,74.9110,0,2,,-0.90
2.164000,-72.7500,74.4732,0,2,,-0.90
2.166000,-77.7500,72.9701,0,2,,-0.90
2.168000,-79.0000,70.4552,0,2,,-0.90
2.170000,-76.7500,67.1038,0,2,,-0.90
2.172000,-84.3750,63.1994,0,2,,-0.90
2.174000,-84.6250,59.1033,0,2,,-0.90
2.176000,-91.3750,55.2092,0,2,,-0.90
2.178000,-97.0000,51.8847,0,2,,-0.90
2.180000,-102.3750,49.4135,0,2,,-0.90
2.182000,-100.5000,47.9501,0,2,,-0.90
2.184000,-94.0000,47.5001,0,2,,-0.90
2.186000,-98.5000,47.9301,0,2,,-0.90
2.188000,-99.1250,49.0021,0,2,,-0.90
2.190000,-96.8750,50.4222,0,2,,-0.90
2.192000,-90.8750,51.8931,0,2,,-0.90
2.194000,-90.1250,53.1624,0,2,,-0.90
2.196000,-91.5000,54.0570,0,2,,-0.90
2.198000,-90.3750,54.5009,0,2,,-0.90
2.200000,-90.7500,54.5122,0,2,,-0.90
2.202000,-88.8750,54.1854,0,2,,-0.90
2.204000,-90.8750,53.6611,0,2,,-0.90
2.206000,-93.6250,53.0927,0,2,,-0.90
2.208000,-94.3750,52.6133,0,2,,-0.90
2.210000,-92.8750,52.3114,0,2,,-0.90
2.212000,-89.6250,52.2192,0,2,,-0.90
2.214000,-91.2500,52.3141,0,2,,-0.90
2.216000,-91.6250,52.5326,0,2,,-0.90
2.218000,-90.3750,52.7892,0,2,,-0.90
2.220000,-88.6250,52.9995,0,2,,-0.90
2.222000,-87.6250,53.0996,0,2,,-0.90
2.224000,-89.7500,53.0607,0,2,,-0.90
2.226000,-92.2500,52.8932,0,2,,-0.90
2.228000,-88.6250,52.6418,0,2,,-0.90
2.230000,-90.3750,52.3712,0,2,,-0.90
2.232000,-89.7500,52.1476,0,2,,-0.90
2.234000,-90.8750,52.0197,0,2,,-0.90
2.236000,-90.3750,52.0039,0,2,,-0.90
2.238000,-89.5000,52.0780,0,2,,-0.90
2.240000,-90.5000,52.1862,0,2,,-0.90
2.242000,-85.1250,52.2552,0,2,,-0.90
2.244000,-87.6250,52.2170,0,2,,-0.90
2.246000,-88.3750,52.0300,0,2,,-0.90
2.248000,-90.0000,51.6916,0,2,,-0.90
2.250000,-87.3750,51.2379,0,2,,-0.90
2.252000,-88.6250,50.7314,0,2,,-0.90
2.254000,-93.6250,50.2401,0,2,,-0.90
2.256000,-90.6250,49.8170,0,2,,-0.90
2.258000,-90.1250,49.4867,0,2,,-0.90
2.260000,-89.3750,49.2433,0,2,,-0.90
2.262000,-83.1250,49.0613,0,2,,-0.90
2.264000,-90.8750,48.9107,0,2,,-0.90
2.266000,-92.5000,48.7695,0,2,,-0.90
2.268000,-91.1250,48.6280,0,2,,-0.90
2.270000,-89.6250,48.4876,0,2,,-0.90
2.272000,-88.6250,48.3564,0,2,,-0.90
2.274000,-91.0000,48.2454,0,2,,-0.90
2.276000,-87.1250,48.1663,0,2,,-0.90
2.278000,-88.1250,48.1311,0,2,,-0.90
2.280000,-88.1250,48.1505,0,2,,-0.90
2.282000,-86.6250,48.2319,0,2,,-0.90
2.284000,-89.1250,48.3740,0,2,,-0.90
2.286000,-90.3750,48.5606,0,2,,-0.90
2.288000,-88.1250,48.7558,0,2,,-0.90
2.290000,-88.5000,48.9049,0,2,,-0.90
2.292000,-85.6250,48.9421,0,2,,-0.90
2.294000,-87.5000,48.8077,0,2,,-0.90
2.296000,-85.3750,48.4674,0,2,,-0.90
2.298000,-81.2500,47.9297,0,2,,-0.90
2.300000,-85.8750,47.2541,0,2,,-0.90
2.302000,-86.3750,46.5421,0,2,,-0.90
2.304000,-92.0000,45.9141,0,2,,-0.90
2.306000,-95.0000,45.4755,0,2,,-0.90
2.308000,-87.8750,45.2871,0,2,,-0.90
2.310000,-87.8750,45.3495,0,2,,-0.90
2.312000,-88.2500,45.6079,0,2,,-0.90
2.314000,-84.2500,45.9726,0,2,,-0.90
2.316000,-84.0000,46.3481,0,2,,-0.90
2.318000,-85.1250,46.6584,0,2,,-0.90
2.320000,-83.0000,46.8636,0,2,,-0.90
2.322000,-83.7500,46.9603,0,2,,-0.90
2.324000,-88.1250,46.9707,0,2,,-0.90
2.326000,-90.2500,46.9231,0,2,,-0.90
2.328000,-84.2500,46.8357,0,2,,-0.90
2.330000,-83.5000,46.7090,0,2,,-0.90
2.332000,-81.5000,46.5306,0,2,,-0.90
2.334000,-85.3750,46.2872,0,2,,-0.90
2.336000,-81.5000,45.9778,0,2,,-0.90
2.338000,-82.8750,45.6211,0,2,,-0.90
2.340000,-84.0000,45.2541,0,2,,-0.90
2.342000,-85.5000,44.9227,0,2,,-0.90
2.344000,-85.7500,44.6669,0,2,,-0.90
2.346000,-88.2500,44.5070,0,2,,-0.90
2.348000,-85.5000,44.4354,0,2,,-0.90
2.350000,-83.1250,44.4188,0,2,,-0.90
2.352000,-80.3750,44.4091,0,2,,-0.90
2.354000,-83.7500,44.3587,0,2,,-0.90
2.356000,-81.5000,44.2329,0,2,,-0.90
2.358000,-84.2500,44.0164,0,2,,-0.90
2.360000,-83.5000,43.7118,0,2,,-0.90
2.362000,-84.5000,43.3342,0,2,,-0.90
2.364000,-85.3750,42.9052,0,2,,-0.90
2.366000,-85.2500,42.4485,0,2,,-0.90
2.368000,-80.6250,41.9882,0,2,,-0.90
2.370000,-84.6250,41.5470,0,2,,-0.90
2.372000,-84.8750,41.1429,0,2,,-0.90
2.374000,-86.8750,40.7832,0,2,,-0.90
2.376000,-84.1250,40.4594,0,2,,-0.90
2.378000,-84.1250,40.1460,0,2,,-0.90
2.380000,-83.7500,39.8072,0,2,,-0.90
2.382000,-84.7500,39.4083,0,2,,-0.90
2.384000,-85.7500,38.9287,0,2,,-0.90
2.386000,-85.1250,38.3709,0,2,,-0.90
2.388000,-84.7500,37.7619,0,2,,-0.90
2.390000,-87.2500,37.1468,0,2,,-0.90
2.392000,-87.3750,36.5750,0,2,,-0.90
2.394000,-88.1250,36.0837,0,2,,-0.90
2.396000,-86.2500,35.6864,0,2,,-0.90
2.398000,-86.2500,35.3686,0,2,,-0.90
2.400000,-84.7500,35.0931,0,2,,-0.90
2.402000,-86.5000,34.8126,0,2,,-0.90
2.404000,-89.2500,34.4823,0,2,,-0.90
2.406000,-88.5000,34.0717,0,2,,-0.90
2.408000,-86.7500,33.5711,0,2,,-0.90
2.410000,-86.5000,32.9934,0,2,,-0.90
2.412000,-87.3750,32.3713,0,2,,-0.90
2.414000,-88.8750,31.7486,0,2,,-0.90
2.416000,-88.1250,31.1689,0,2,,-0.90
2.418000,-91.2500,30.6635,0,2,,-0.90
2.420000,-87.0000,30.2442,0,2,,-0.90
2.422000,-89.3750,29.9017,0,2,,-0.90
2.424000,-89.2500,29.6100,0,2,,-0.90
2.426000,-90.6250,29.3338,0,2,,-0.90
2.428000,-90.0000,29.0365,0,2,,-0.90
2.430000,-88.8750,28.6873,0,2,,-0.90
2.432000,-90.1250,28.2665,0,2,,-0.90
2.434000,-89.1250,27.7702,0,2,,-0.90
2.436000,-88.3750,27.2123,0,2,,-0.90
2.438000,-88.0000,26.6241,0,2,,-0.90
2.440000,-89.8750,26.0490,0,2,,-0.90
2.442000,-92.0000,25.5327,0,2,,-0.90
2.444000,-95.1250,25.1092,0,2,,-0.90
2.446000,-92.8750,24.7903,0,2,,-0.90
2.448000,-92.1250,24.5602,0,2,,-0.90
2.450000,-88.3750,24.3817,0,2,,-0.90
2.452000,-89.6250,24.2096,0,2,,-0.90
2.454000,-89.5000,24.0062,0,2,,-0.90
2.456000,-90.7500,23.7529,0,2,,-0.90
2.458000,-91.2500,23.4543,0,2,,-0.90
2.460000,-88.5000,23.1352,0,2,,-0.90
2.462000,-91.2500,22.8305,0,2,,-0.90
2.464000,-94.2500,22.5740,0,2,,-0.90
2.466000,-92.8750,22.3853,0,2,,-0.90
2.468000,-91.2500,22.2628,0,2,,-0.90
2.470000,-90.1250,22.1834,0,2,,-0.90
2.472000,-89.8750,22.1108,0,2,,-0.90
2.474000,-88.7500,22.0082,0,2,,-0.90
2.476000,-86.1250,21.8510,0,2,,-0.90
2.478000,-90.2500,21.6348,0,2,,-0.90
2.480000,-90.6250,21.3743,0,2,,-0.90
2.482000,-92.2500,21.0964,0,2,,-0.90
2.484000,-93.2500,20.8290,0,2,,-0.90
2.486000,-88.7500,20.5928,0,2,,-0.90
2.488000,-89.8750,20.3971,0,2,,-0.90
2.490000,-87.6250,20.2405,0,2,,-0.90
2.492000,-90.5000,20.1132,0,2,,-0.90
2.494000,-90.7500,19.9987,0,2,,-0.90
2.496000,-87.3750,19.8748,0,2,,-0.90
2.498000,-89.8750,19.7157,0,2,,-0.90
2.500000,-88.5000,19.4975,0,2,,-0.90
2.502000,-89.8750,19.2036,0,2,,-0.90
2.504000,-90.1250,18.8305,0,2,,-0.90
2.506000,-88.2500,18.3907,0,2,,-0.90
2.508000,-91.5000,17.9104,0,2,,-0.90
2.510000,-89.8750,17.4231,0,2,,-0.90
2.512000,-93.0000,16.9621,0,2,,-0.90
2.514000,-89.0000,16.5529,0,2,,-0.90
2.516000,-87.7500,16.2117,0,2,,-0.90
2.518000,-88.5000,15.9460,0,2,,-0.90
2.520000,-89.7500,15.7574,0,2,,-0.90
2.522000,-92.3750,15.6409,0,2,,-0.90
2.524000,-93.3750,15.5817,0,2,,-0.90
2.526000,-91.1250,15.5531,0,2,,-0.90
2.528000,-89.1250,15.5167,0,2,,-0.90
2.530000,-87.1250,15.4298,0,2,,-0.90
2.532000,-90.1250,15.2551,0,2,,-0.90
2.534000,-87.3750,14.9700,0,2,,-0.90
2.536000,-89.2500,14.5724,0,2,,-0.90
2.538000,-89.0000,14.0810,0,2,,-0.90
2.540000,-89.1250,13.5313,0,2,,-0.90
2.542000,-92.8750,12.9679,0,2,,-0.90
2.544000,-94.8750,12.4361,0,2,,-0.90
2.546000,-87.0000,11.9744,0,2,,-0.90
2.548000,-91.2500,11.6102,0,2,,-0.90
2.550000,-90.3750,11.3568,0,2,,-0.90
2.552000,-92.1250,11.2127,0,2,,-0.90
2.554000,-92.2500,11.1609,0,2,,-0.90
2.556000,-89.5000,11.1727,0,2,,-0.90
2.558000,-87.8750,11.2158,0,2,,-0.90
2.560000,-85.7500,11.2647,0,2,,-0.90
2.562000,-90.5000,11.3082,0,2,,-0.90
2.564000,-93.3750,11.3491,0,2,,-0.90
2.566000,-90.5000,11.3957,0,2,,-0.90
2.568000,-88.7500,11.4506,0,2,,-0.90
2.570000,-88.2500,11.5021,0,2,,-0.90
2.572000,-87.2500,11.5232,0,2,,-0.90
2.574000,-86.1250,11.4759,0,2,,-0.90
2.576000,-88.2500,11.3205,0,2,,-0.90
2.578000,-85.5000,11.0265,0,2,,-0.90
2.580000,-87.2500,10.5804,0,2,,-0.90
2.582000,-90.7500,9.9908,0,2,,-0.90
2.584000,-92.0000,9.2880,0,2,,-0.90
2.586000,-88.5000,8.5210,0,2,,-0.90
2.588000,-88.2500,7.7514,0,2,,-0.90
2.590000,-89.3750,7.0464,0,2,,-0.90
2.592000,-91.0000,6.4691,0,2,,-0.90
2.594000,-90.8750,6.0666,0,2,,-0.90
2.596000,-91.5000,5.8600,0,2,,-0.90
2.598000,-90.3750,5.8384,0,2,,-0.90
2.600000,-90.0000,5.9612,0,2,,-0.90
2.602000,-88.7500,6.1669,0,2,,-0.90
2.604000,-89.8750,6.3857,0,2,,-0.90
2.606000,-90.0000,6.5513,0,2,,-0.90
2.608000,-91.1250,6.6094,0,2,,-0.90
2.610000,-87.3750,6.5234,0,2,,-0.90
2.612000,-87.6250,6.2782,0,2,,-0.90
2.614000,-85.8750,5.8823,0,2,,-0.90
2.616000,-87.3750,5.3670,0,2,,-0.90
2.618000,-88.6250,4.7810,0,2,,-0.90
2.620000,-92.3750,4.1801,0,2,,-0.90
2.622000,-92.7500,3.6148,0,2,,-0.90
2.624000,-91.2500,3.1205,0,2,,-0.90
2.626000,-90.1250,2.7137,0,2,,-0.90
2.628000,-87.8750,2.3953,0,2,,-0.90
2.630000,-89.8750,2.1553,0,2,,-0.90
2.632000,-91.1250,1.9785,0,2,,-0.90
2.634000,-91.7500,1.8451,0,2,,-0.90
2.636000,-89.6250,1.7329,0,2,,-0.90
2.638000,-86.2500,1.6179,0,2,,-0.90
2.640000,-90.3750,1.4790,0,2,,-0.90
2.642000,-93.0000,1.3003,0,2,,-0.90
2.644000,-92.3750,1.0728,0,2,,-0.90
2.646000,-89.1250,0.7936,0,2,,-0.90
2.648000,-88.5000,0.4652,0,2,,-0.90
2.650000,-92.1250,0.0964,0,2,,-0.90
2.652000,-90.8750,-0.2987,0,2,,-0.90
2.654000,-88.2500,-0.6997,0,2,,-0.90
2.656000,-89.6250,-1.0804,0,2,,-0.90
2.658000,-88.1250,-1.4100,0,2,,-0.90
2.660000,-93.1250,-1.6569,0,2,,-0.90
2.662000,-94.3750,-1.7958,0,2,,-0.90
2.664000,-90.6250,-1.8163,0,2,,-0.90
2.666000,-91.8750,-1.7288,0,2,,-0.90
2.668000,-89.7500,-1.5642,0,2,,-0.90
2.670000,-89.0000,-1.3689,0,2,,-0.90
2.672000,-87.7500,-1.1950,0,2,,-0.90
2.674000,-87.5000,-1.0901,0,2,,-0.90
2.676000,-89.2500,-1.0885,0,2,,-0.90
2.678000,-86.3750,-1.2056,0,2,,-0.90
2.680000,-88.8750,-1.4370,0,2,,-0.90
2.682000,-91.3750,-1.7626,0,2,,-0.90
2.684000,-91.1250,-2.1528,0,2,,-0.90
2.686000,-89.8750,-2.5762,0,2,,-0.90
2.688000,-86.8750,-3.0049,0,2,,-0.90
2.690000,-90.3750,-3.4179,0,2,,-0.90
2.692000,-88.8750,-3.8014,0,2,,-0.90
2.694000,-88.2500,-4.1501,0,2,,-0.90
2.696000,-91.3750,-4.4655,0,2,,-0.90
2.698000,-87.7500,-4.7552,0,2,,-0.90
2.700000,-91.3750,-5.0295,0,2,,-0.90
2.702000,-92.8750,-5.2983,0,2,,-0.90
2.704000,-89.3750,-5.5680,0,2,,-0.90
2.706000,-92.2500,-5.8387,0,2,,-0.90
2.708000,-89.6250,-6.1033,0,2,,-0.90
2.710000,-89.0000,-6.3481,0,2,,-0.90
2.712000,-89.1250,-6.5565,0,2,,-0.90
2.714000,-91.5000,-6.7134,0,2,,-0.90
2.716000,-92.7500,-6.8102,0,2,,-0.90
2.718000,-87.0000,-6.8472,0,2,,-0.90
2.720000,-89.1250,-6.8325,0,2,,-0.90
2.722000,-91.8750,-6.7787,0,2,,-0.90
2.724000,-89.0000,-6.7014,0,2,,-0.90
2.726000,-91.7500,-6.6207,0,2,,-0.90
2.728000,-88.3750,-6.5636,0,2,,-0.90
2.730000,-91.0000,-6.5656,0,2,,-0.90
2.732000,-89.1250,-6.6658,0,2,,-0.90
2.734000,-87.2500,-6.8962,0,2,,-0.90
2.736000,-85.2500,-7.2659,0,2,,-0.90
2.738000,-85.3750,-7.7474,0,2,,-0.90
2.740000,-88.5000,-8.2737,0,2,,-0.90
2.742000,-95.3750,-8.7519,0,2,,-0.90
2.744000,-92.5000,-9.0895,0,2,,-0.90
2.746000,-93.5000,-9.2250,0,2,,-0.90
2.748000,-89.2500,-9.1492,0,2,,-0.90
2.750000,-90.2500,-8.9088,0,2,,-0.90
2.752000,-86.1250,-8.5925,0,2,,-0.90
2.754000,-85.3750,-8.3027,0,2,,-0.90
2.756000,-85.3750,-8.1253,0,2,,-0.90
2.758000,-86.1250,-8.1075,0,2,,-0.90
2.760000,-90.5000,-8.2494,0,2,,-0.90
2.762000,-91.8750,-8.5118,0,2,,-0.90
2.764000,-88.6250,-8.8334,0,2,,-0.90
2.766000,-89.3750,-9.1510,0,2,,-0.90
2.768000,-87.7500,-9.4149,0,2,,-0.90
2.770000,-88.2500,-9.5965,0,2,,-0.90
2.772000,-86.5000,-9.6909,0,2,,-0.90
2.774000,-85.1250,-9.7133,0,2,,-0.90
2.776000,-86.8750,-9.6945,0,2,,-0.90
2.778000,-89.8750,-9.6772,0,2,,-0.90
2.780000,-90.8750,-9.7113,0,2,,-0.90
2.782000,-90.1250,-9.8480,0,2,,-0.90
2.784000,-85.8750,-10.1293,0,2,,-0.90
2.786000,-86.8750,-10.5746,0,2,,-0.90
2.788000,-87.7500,-11.1688,0,2,,-0.90
2.790000,-89.8750,-11.8580,0,2,,-0.90
2.792000,-86.8750,-12.5555,0,2,,-0.90
2.794000,-88.2500,-13.1582,0,2,,-0.90
2.796000,-88.8750,-13.5695,0,2,,-0.90
2.798000,-92.6250,-13.7242,0,2,,-0.90
2.800000,-94.8750,-13.6095,0,2,,-0.90
2.802000,-92.5000,-13.2737,0,2,,-0.90
2.804000,-88.8750,-12.8186,0,2,,-0.90
2.806000,-85.2500,-12.3752,0,2,,-0.90
2.808000,-85.1250,-12.0701,0,2,,-0.90
2.810000,-86.6250,-11.9952,0,2,,-0.90
2.812000,-88.1250,-12.1887,0,2,,-0.90
2.814000,-88.0000,-12.6326,0,2,,-0.90
2.816000,-85.2500,-13.2636,0,2,,-0.90
2.818000,-90.6250,-13.9924,0,2,,-0.90
2.820000,-91.8750,-14.7260,0,2,,-0.90
2.822000,-94.5000,-15.3873,0,2,,-0.90
2.824000,-91.1250,-15.9277,0,2,,-0.90
2.826000,-88.5000,-16.3297,0,2,,-0.90
2.828000,-90.1250,-16.5997,0,2,,-0.90
2.830000,-90.1250,-16.7570,0,2,,-0.90
2.832000,-91.7500,-16.8233,0,2,,-0.90
2.834000,-88.2500,-16.8156,0,2,,-0.90
2.836000,-87.7500,-16.7444,0,2,,-0.90
2.838000,-92.7500,-16.6156,0,2,,-0.90
2.840000,-92.8750,-16.4363,0,2,,-0.90
2.842000,-90.6250,-16.2208,0,2,,-0.90
2.844000,-89.6250,-15.9960,0,2,,-0.90
2.846000,-89.3750,-15.7997,0,2,,-0.90
2.848000,-88.6250,-15.6762,0,2,,-0.90
2.850000,-88.1250,-15.6675,0,2,,-0.90
2.852000,-86.8750,-15.8033,0,2,,-0.90
2.854000,-88.8750,-16.0917,0,2,,-0.90
2.856000,-85.8750,-16.5133,0,2,,-0.90
2.858000,-89.1250,-17.0207,0,2,,-0.90
2.860000,-92.7500,-17.5452,0,2,,-0.90
2.862000,-92.0000,-18.0107,0,2,,-0.90
2.864000,-92.1250,-18.3505,0,2,,-0.90
2.866000,-90.0000,-18.5221,0,2,,-0.90
2.868000,-90.6250,-18.5166,0,2,,-0.90
2.870000,-89.5000,-18.3603,0,2,,-0.90
2.872000,-88.3750,-18.1086,0,2,,-0.90
2.874000,-90.1250,-17.8338,0,2,,-0.90
2.876000,-85.5000,-17.6094,0,2,,-0.90
2.878000,-89.1250,-17.4940,0,2,,-0.90
2.880000,-90.8750,-17.5189,0,2,,-0.90
2.882000,-90.6250,-17.6809,0,2,,-0.90
2.884000,-90.0000,-17.9419,0,2,,-0.90
2.886000,-88.2500,-18.2314,0,2,,-0.90
2.888000,-89.5000,-18.4534,0,2,,-0.90
2.890000,-88.2500,-18.4952,0,2,,-0.90
2.892000,-86.8750,-18.2390,0,2,,-0.90
2.894000,-87.6250,-17.5777,0,2,,-0.90
2.896000,-83.3750,-16.4323,0,2,,-0.90
2.898000,-87.6250,-14.7720,0,2,,-0.90
2.900000,-85.0000,-12.6336,0,2,,-0.90
2.902000,-84.0000,-10.1354,0,2,,-0.90
2.904000,-78.2500,-7.4784,0,2,,-0.90
2.906000,-72.6250,-4.9328,0,2,,-0.90
2.908000,-73.8750,-2.8078,0,2,,-0.90
2.910000,-70.8750,-1.4094,0,2,,-0.90
2.912000,-71.0000,-0.9931,0,2,,-0.90
2.914000,-68.5000,-1.7172,0,2,,-0.90
2.916000,-66.2500,-3.6076,0,2,,-0.90
2.918000,-76.8750,-6.5408,0,2,,-0.90
2.920000,-84.3750,-10.2543,0,2,,-0.90
2.922000,-83.7500,-14.3839,0,2,,-0.90
2.924000,-85.8750,-18.5193,0,2,,-0.90
2.926000,-93.3750,-22.2682,0,2,,-0.90
2.928000,-98.6250,-25.3143,0,2,,-0.90
2.930000,-98.0000,-27.4592,0,2,,-0.90
2.932000,-93.8750,-28.6394,0,2,,-0.90
2.934000,-95.7500,-28.9157,0,2,,-0.90
2.936000,-93.7500,-28.4413,0,2,,-0.90
2.938000,-96.2500,-27.4215,0,2,,-0.90
2.940000,-97.6250,-26.0751,0,2,,-0.90
2.942000,-93.0000,-24.6055,0,2,,-0.90
2.944000,-94.1250,-23.1817,0,2,,-0.90
2.946000,-89.0000,-21.9278,0,2,,-0.90
2.948000,-88.8750,-20.9187,0,2,,-0.90
2.950000,-86.8750,-20.1798,0,2,,-0.90
2.952000,-86.1250,-19.6930,0,2,,-0.90
2.954000,-85.8750,-19.4062,0,2,,-0.90
2.956000,-87.0000,-19.2487,0,2,,-0.90
2.958000,-87.7500,-19.1498,0,2,,-0.90
2.960000,-90.7500,-19.0566,0,2,,-0.90
2.962000,-89.2500,-18.9469,0,2,,-0.90
2.964000,-87.6250,-18.8320,0,2,,-0.90
2.966000,-83.8750,-18.7479,0,2,,-0.90
2.968000,-84.3750,-18.7377,0,2,,-0.90
2.970000,-84.0000,-18.8318,0,2,,-0.90
2.972000,-85.3750,-19.0353,0,2,,-0.90
2.974000,-84.7500,-19.3250,0,2,,-0.90
2.976000,-87.1250,-19.6580,0,2,,-0.90
2.978000,-92.0000,-19.9872,0,2,,-0.90
2.980000,-92.5000,-20.2762,0,2,,-0.90
2.982000,-85.8750,-20.5068,0,2,,-0.90
2.984000,-85.3750,-20.6758,0,2,,-0.90
2.986000,-87.0000,-20.7845,0,2,,-0.90
2.988000,-86.8750,-20.8278,0,2,,-0.90
2.990000,-84.8750,-20.7900,0,2,,-0.90
2.992000,-87.8750,-20.6506,0,2,,-0.90
2.994000,-88.1250,-20.3960,0,2,,-0.90
2.996000,-89.1250,-20.0325,0,2,,-0.90
2.998000,-88.2500,-19.5934,0,2,,-0.90
3.000000,-86.1250,-19.1362,0,2,,-0.90
3.002000,-82.3750,-18.7310,0,2,,-0.90
3.004000,-85.7500,-18.4435,0,2,,-0.90
3.006000,-84.8750,-18.3213,0,2,,-0.90
3.008000,-84.8750,-18.3863,0,2,,-0.90
3.010000,-84.0000,-18.6334,0,2,,-0.90
3.012000,-86.2500,-19.0343,0,2,,-0.90
3.014000,-84.1250,-19.5412,0,2,,-0.90
3.016000,-86.7500,-20.0911,0,2,,-0.90
3.018000,-88.0000,-20.6092,0,2,,-0.90
3.020000,-87.2500,-21.0147,0,2,,-0.90
3.022000,-86.3750,-21.2295,0,2,,-0.90
3.024000,-89.2500,-21.1909,0,2,,-0.90
3.026000,-86.6250,-20.8663,0,2,,-0.90
3.028000,-89.0000,-20.2657,0,2,,-0.90
3.030000,-85.3750,-19.4468,0,2,,-0.90
3.032000,-83.1250,-18.5084,0,2,,-0.90
3.034000,-80.0000,-17.5723,0,2,,-0.90
3.036000,-82.0000,-16.7587,0,2,,-0.90
3.038000,-84.6250,-16.1631,0,2,,-0.90
3.040000,-83.5000,-15.8409,0,2,,-0.90
3.042000,-82.0000,-15.8013,0,2,,-0.90
3.044000,-80.5000,-16.0101,0,2,,-0.90
3.046000,-83.5000,-16.3989,0,2,,-0.90
3.048000,-82.6250,-16.8784,0,2,,-0.90
3.050000,-82.0000,-17.3533,0,2,,-0.90
3.052000,-82.3750,-17.7368,0,2,,-0.90
3.054000,-80.7500,-17.9620,0,2,,-0.90
3.056000,-86.6250,-17.9898,0,2,,-0.90
3.058000,-86.3750,-17.8139,0,2,,-0.90
3.060000,-85.1250,-17.4608,0,2,,-0.90
3.062000,-82.8750,-16.9828,0,2,,-0.90
3.064000,-79.0000,-16.4456,0,2,,-0.90
3.066000,-81.3750,-15.9138,0,2,,-0.90
3.068000,-79.6250,-15.4397,0,2,,-0.90
3.070000,-81.7500,-15.0576,0,2,,-0.90
3.072000,-81.0000,-14.7851,0,2,,-0.90
3.074000,-77.2500,-14.6257,0,2,,-0.90
3.076000,-81.0000,-14.5732,0,2,,-0.90
3.078000,-82.3750,-14.6141,0,2,,-0.90
3.080000,-81.5000,-14.7307,0,2,,-0.90
3.082000,-81.2500,-14.9033,0,2,,-0.90
3.084000,-80.3750,-15.1116,0,2,,-0.90
3.086000,-80.7500,-15.3348,0,2,,-0.90
3.088000,-79.6250,-15.5511,0,2,,-0.90
3.090000,-81.7500,-15.7370,0,2,,-0.90
3.092000,-79.0000,-15.8673,0,2,,-0.90
3.094000,-78.6250,-15.9169,0,2,,-0.90
3.096000,-83.7500,-15.8648,0,2,,-0.90
3.098000,-85.1250,-15.7002,0,2,,-0.90
3.100000,-82.6250,-15.4289,0,2,,-0.90
3.102000,-80.8750,-15.0751,0,2,,-0.90
3.104000,-77.6250,-14.6779,0,2,,-0.90
3.106000,-80.5000,-14.2831,0,2,,-0.90
3.108000,-79.1250,-13.9336,0,2,,-0.90
3.110000,-77.2500,-13.6620,0,2,,-0.90
3.112000,-78.2500,-13.4856,0,2,,-0.90
3.114000,-77.5000,-13.4063,0,2,,-0.90
3.116000,-79.6250,-13.4130,0,2,,-0.90
3.118000,-83.3750,-13.4883,0,2,,-0.90
3.120000,-79.8750,-13.6147,0,2,,-0.90
3.122000,-80.5000,-13.7802,0,2,,-0.90
3.124000,-77.7500,-13.9780,0,2,,-0.90
3.126000,-80.6250,-14.2036,0,2,,-0.90
3.128000,-77.5000,-14.4501,0,2,,-0.90
3.130000,-78.5000,-14.7054,0,2,,-0.90
3.132000,-81.2500,-14.9516,0,2,,-0.90
3.134000,-79.7500,-15.1691,0,2,,-0.90
3.136000,-82.3750,-15.3419,0,2,,-0.90
3.138000,-84.0000,-15.4639,0,2,,-0.90
3.140000,-81.6250,-15.5434,0,2,,-0.90
3.142000,-82.3750,-15.6029,0,2,,-0.90
3.144000,-79.7500,-15.6758,0,2,,-0.90
3.146000,-83.6250,-15.7989,0,2,,-0.90
3.148000,-79.3750,-16.0034,0,2,,-0.90
3.150000,-80.1250,-16.3063,0,2,,-0.90
3.152000,-81.5000,-16.7033,0,2,,-0.90
3.154000,-82.3750,-17.1666,0,2,,-0.90
3.156000,-84.3750,-17.6487,0,2,,-0.90
3.158000,-87.5000,-18.0922,0,2,,-0.90
3.160000,-83.2500,-18.4425,0,2,,-0.90
3.162000,-87.1250,-18.6606,0,2,,-0.90
3.164000,-84.7500,-18.7316,0,2,,-0.90
3.166000,-84.6250,-18.6684,0,2,,-0.90
3.168000,-83.3750,-18.5065,0,2,,-0.90
3.170000,-82.5000,-18.2952,0,2,,-0.90
3.172000,-82.0000,-18.0839,0,2,,-0.90
3.174000,-82.5000,-17.9115,0,2,,-0.90
3.176000,-86.2500,-17.8005,0,2,,-0.90
3.178000,-87.2500,-17.7584,0,2,,-0.90
3.180000,-84.3750,-17.7834,0,2,,-0.90
3.182000,-83.6250,-17.8718,0,2,,-0.90
3.184000,-84.7500,-18.0226,0,2,,-0.90
3.186000,-85.8750,-18.2377,0,2,,-0.90
3.188000,-84.6250,-18.5186,0,2,,-0.90
3.190000,-81.7500,-18.8588,0,2,,-0.90
3.192000,-82.6250,-19.2355,0,2,,-0.90
3.194000,-84.1250,-19.6049,0,2,,-0.90
3.196000,-87.8750,-19.9078,0,2,,-0.90
3.198000,-91.7500,-20.0840,0,2,,-0.90
3.200000,-89.5000,-20.0921,0,2,,-0.90
3.202000,-87.3750,-19.9243,0,2,,-0.90
3.204000,-84.8750,-19.6113,0,2,,-0.90
3.206000,-84.0000,-19.2129,0,2,,-0.90
3.208000,-82.7500,-18.8012,0,2,,-0.90
3.210000,-85.6250,-18.4416,0,2,,-0.90
3.212000,-82.8750,-18.1771,0,2,,-0.90
3.214000,-84.7500,-18.0206,0,2,,-0.90
3.216000,-87.2500,-17.9554,0,2,,-0.90
3.218000,-86.8750,-17.9420,0,2,,-0.90
3.220000,-84.0000,-17.9301,0,2,,-0.90
3.222000,-84.3750,-17.8727,0,2,,-0.90
3.224000,-86.3750,-17.7394,0,2,,-0.90
3.226000,-85.1250,-17.5261,0,2,,-0.90
3.228000,-84.6250,-17.2584,0,2,,-0.90
3.230000,-84.6250,-16.9848,0,2,,-0.90
3.232000,-78.5000,-16.7607,0,2,,-0.90
3.234000,-83.5000,-16.6277,0,2,,-0.90
3.236000,-84.3750,-16.5980,0,2,,-0.90
3.238000,-85.6250,-16.6491,0,2,,-0.90
3.240000,-85.3750,-16.7318,0,2,,-0.90
3.242000,-85.6250,-16.7886,0,2,,-0.90
3.244000,-86.5000,-16.7730,0,2,,-0.90
3.246000,-84.5000,-16.6646,0,2,,-0.90
3.248000,-81.2500,-16.4730,0,2,,-0.90
3.250000,-81.0000,-16.2310,0,2,,-0.90
3.252000,-81.6250,-15.9811,0,2,,-0.90
3.254000,-83.7500,-15.7628,0,2,,-0.90
3.256000,-87.2500,-15.6052,0,2,,-0.90
3.258000,-85.6250,-15.5262,0,2,,-0.90
3.260000,-82.8750,-15.5353,0,2,,-0.90
3.262000,-83.0000,-15.6362,0,2,,-0.90
3.264000,-85.6250,-15.8287,0,2,,-0.90
3.266000,-83.2500,-16.1070,0,2,,-0.90
3.268000,-83.1250,-16.4571,0,2,,-0.90
3.270000,-83.5000,-16.8525,0,2,,-0.90
3.272000,-82.1250,-17.2506,0,2,,-0.90
3.274000,-87.1250,-17.5938,0,2,,-0.90
3.276000,-89.7500,-17.8165,0,2,,-0.90
3.278000,-88.5000,-17.8582,0,2,,-0.90
3.280000,-85.8750,-17.6782,0,2,,-0.90
3.282000,-83.2500,-17.2678,0,2,,-0.90
3.284000,-87.7500,-16.6563,0,2,,-0.90
3.286000,-87.7500,-15.9112,0,2,,-0.90
3.288000,-81.1250,-15.1273,0,2,,-0.90
3.290000,-80.7500,-14.4087,0,2,,-0.90
3.292000,-78.2500,-13.8437,0,2,,-0.90
3.294000,-81.6250,-13.4844,0,2,,-0.90
3.296000,-86.3750,-13.3374,0,2,,-0.90
3.298000,-85.5000,-13.3692,0,2,,-0.90
3.300000,-85.5000,-13.5213,0,2,,-0.90
3.302000,-81.1250,-13.7278,0,2,,-0.90
3.304000,-83.5000,-13.9284,0,2,,-0.90
3.306000,-80.8750,-14.0746,0,2,,-0.90
3.308000,-80.1250,-14.1323,0,2,,-0.90
3.310000,-84.0000,-14.0816,0,2,,-0.90
3.312000,-81.7500,-13.9191,0,2,,-0.90
3.314000,-85.6250,-13.6600,0,2,,-0.90
3.316000,-89.0000,-13.3399,0,2,,-0.90
3.318000,-83.0000,-13.0107,0,2,,-0.90
3.320000,-81.5000,-12.7299,0,2,,-0.90
3.322000,-79.5000,-12.5448,0,2,,-0.90
3.324000,-83.2500,-12.4769,0,2,,-0.90
3.326000,-79.5000,-12.5137,0,2,,-0.90
3.328000,-80.5000,-12.6117,0,2,,-0.90
3.330000,-82.8750,-12.7088,0,2,,-0.90
3.332000,-83.3750,-12.7445,0,2,,-0.90
3.334000,-85.5000,-12.6796,0,2,,-0.90
3.336000,-87.2500,-12.5107,0,2,,-0.90
3.338000,-85.3750,-12.2732,0,2,,-0.90
3.340000,-80.5000,-12.0299,0,2,,-0.90
3.342000,-77.5000,-11.8508,0,2,,-0.90
3.344000,-82.3750,-11.7905,0,2,,-0.90
3.346000,-81.5000,-11.8722,0,2,,-0.90
3.348000,-82.8750,-12.0838,0,2,,-0.90
3.350000,-82.5000,-12.3833,0,2,,-0.90
3.352000,-84.0000,-12.7098,0,2,,-0.90
3.354000,-85.3750,-12.9960,0,2,,-0.90
3.356000,-86.5000,-13.1780,0,2,,-0.90
3.358000,-84.0000,-13.2046,0,2,,-0.90
3.360000,-83.3750,-13.0442,0,2,,-0.90
3.362000,-83.8750,-12.6915,0,2,,-0.90
3.364000,-85.7500,-12.1732,0,2,,-0.90
3.366000,-80.8750,-11.5495,0,2,,-0.90
3.368000,-81.0000,-10.9098,0,2,,-0.90
3.370000,-82.2500,-10.3584,0,2,,-0.90
3.372000,-82.3750,-9.9940,0,2,,-0.90
3.374000,-80.7500,-9.8855,0,2,,-0.90
3.376000,-80.8750,-10.0528,0,2,,-0.90
3.378000,-81.8750,-10.4569,0,2,,-0.90
3.380000,-86.2500,-11.0067,0,2,,-0.90
3.382000,-84.8750,-11.5781,0,2,,-0.90
3.384000,-83.8750,-12.0421,0,2,,-0.90
3.386000,-81.3750,-12.2920,0,2,,-0.90
3.388000,-83.0000,-12.2628,0,2,,-0.90
3.390000,-83.8750,-11.9428,0,2,,-0.90
3.392000,-83.7500,-11.3754,0,2,,-0.90
3.394000,-84.6250,-10.6536,0,2,,-0.90
3.396000,-85.5000,-9.9079,0,2,,-0.90
3.398000,-84.1250,-9.2872,0,2,,-0.90
3.400000,-84.8750,-8.9326,0,2,,-0.90
3.402000,-79.2500,-8.9474,0,2,,-0.90
3.404000,-78.1250,-9.3670,0,2,,-0.90
3.406000,-77.7500,-10.1390,0,2,,-0.90
3.408000,-80.1250,-11.1228,0,2,,-0.90
3.410000,-82.0000,-12.1145,0,2,,-0.90
3.412000,-94.3750,-12.8949,0,2,,-0.90
3.414000,-96.2500,-13.2850,0,2,,-0.90
3.416000,-87.3750,-13.1925,0,2,,-0.90
3.418000,-81.7500,-12.6304,0,2,,-0.90
3.420000,-86.2500,-11.7044,0,2,,-0.90
3.422000,-85.3750,-10.5784,0,2,,-0.90
3.424000,-79.0000,-9.4302,0,2,,-0.90
3.426000,-77.2500,-8.4122,0,2,,-0.90
3.428000,-78.7500,-7.6246,0,2,,-0.90
3.430000,-79.0000,-7.1069,0,2,,-0.90
3.432000,-88.0000,-6.8472,0,2,,-0.90
3.434000,-85.7500,-6.8007,0,2,,-0.90
3.436000,-83.1250,-6.9093,0,2,,-0.90
3.438000,-78.1250,-7.1109,0,2,,-0.90
3.440000,-78.3750,-7.3410,0,2,,-0.90
3.442000,-81.3750,-7.5322,0,2,,-0.90
3.444000,-83.0000,-7.6190,0,2,,-0.90
3.446000,-81.0000,-7.5508,0,2,,-0.90
3.448000,-81.8750,-7.3067,0,2,,-0.90
3.450000,-79.1250,-6.9063,0,2,,-0.90
3.452000,-81.1250,-6.4123,0,2,,-0.90
3.454000,-85.1250,-5.9221,0,2,,-0.90
3.456000,-86.2500,-5.5506,0,2,,-0.90
3.458000,-81.3750,-5.4048,0,2,,-0.90
3.460000,-74.3750,-5.5534,0,2,,-0.90
3.462000,-78.0000,-6.0009,0,2,,-0.90
3.464000,-79.1250,-6.6763,0,2,,-0.90
3.466000,-82.3750,-7.4437,0,2,,-0.90
3.468000,-86.0000,-8.1350,0,2,,-0.90
3.470000,-83.1250,-8.5939,0,2,,-0.90
3.472000,-83.5000,-8.7180,0,2,,-0.90
3.474000,-89.6250,-8.4867,0,2,,-0.90
3.476000,-87.0000,-7.9689,0,2,,-0.90
3.478000,-85.7500,-7.3080,0,2,,-0.90
3.480000,-82.1250,-6.6859,0,2,,-0.90
3.482000,-77.2500,-6.2733,0,2,,-0.90
3.484000,-78.2500,-6.1821,0,2,,-0.90
3.486000,-78.2500,-6.4316,0,2,,-0.90
3.488000,-82.0000,-6.9417,0,2,,-0.90
3.490000,-82.8750,-7.5545,0,2,,-0.90
3.492000,-88.7500,-8.0787,0,2,,-0.90
3.494000,-89.6250,-8.3408,0,2,,-0.90
3.496000,-88.8750,-8.2292,0,2,,-0.90
3.498000,-85.1250,-7.7172,0,2,,-0.90
3.500000,-80.7500,-6.8602,0,2,,-0.90
3.502000,-82.6250,-5.7714,0,2,,-0.90
3.504000,-79.0000,-4.5873,0,2,,-0.90
3.506000,-75.1250,-3.4324,0,2,,-0.90
3.508000,-79.1250,-2.3950,0,2,,-0.90
3.510000,-73.6250,-1.5184,0,2,,-0.90
3.512000,-81.7500,-0.8082,0,2,,-0.90
3.514000,-82.2500,-0.2523,0,2,,-0.90
3.516000,-82.3750,0.1568,0,2,,-0.90
3.518000,-77.0000,0.4075,0,2,,-0.90
3.520000,-74.8750,0.4687,0,2,,-0.90
3.522000,-77.3750,0.3036,0,2,,-0.90
3.524000,-75.2500,-0.1104,0,2,,-0.90
3.526000,-74.5000,-0.7627,0,2,,-0.90
3.528000,-75.2500,-1.6003,0,2,,-0.90
3.530000,-81.0000,-2.5313,0,2,,-0.90
3.532000,-84.7500,-3.4414,0,2,,-0.90
3.534000,-85.2500,-4.2182,0,2,,-0.90
3.536000,-85.7500,-4.7752,0,2,,-0.90
3.538000,-81.8750,-5.0671,0,2,,-0.90
3.540000,-81.8750,-5.0953,0,2,,-0.90
3.542000,-83.3750,-4.9033,0,2,,-0.90
3.544000,-85.1250,-4.5655,0,2,,-0.90
3.546000,-83.0000,-4.1701,0,2,,-0.90
3.548000,-77.0000,-3.7981,0,2,,-0.90
3.550000,-75.2500,-3.5015,0,2,,-0.90
3.552000,-82.8750,-3.2903,0,2,,-0.90
3.554000,-84.1250,-3.1340,0,2,,-0.90
3.556000,-85.2500,-2.9823,0,2,,-0.90
3.558000,-86.8750,-2.7932,0,2,,-0.90
3.560000,-83.6250,-2.5583,0,2,,-0.90
3.562000,-80.7500,-2.3118,0,2,,-0.90
3.564000,-79.7500,-2.1183,0,2,,-0.90
3.566000,-76.0000,-2.0443,0,2,,-0.90
3.568000,-77.0000,-2.1254,0,2,,-0.90
3.570000,-77.2500,-2.3427,0,2,,-0.90
3.572000,-83.5000,-2.6199,0,2,,-0.90
3.574000,-86.3750,-2.8442,0,2,,-0.90
3.576000,-86.3750,-2.9042,0,2,,-0.90
3.578000,-88.1250,-2.7280,0,2,,-0.90
3.580000,-81.0000,-2.3103,0,2,,-0.90
3.582000,-78.7500,-1.7159,0,2,,-0.90
3.584000,-78.3750,-1.0628,0,2,,-0.90
3.586000,-77.3750,-0.4914,0,2,,-0.90
3.588000,-78.1250,-0.1312,0,2,,-0.90
3.590000,-80.1250,-0.0726,0,2,,-0.90
3.592000,-81.7500,-0.3496,0,2,,-0.90
3.594000,-84.0000,-0.9344,0,2,,-0.90
3.596000,-79.8750,-1.7421,0,2,,-0.90
3.598000,-81.8750,-2.6457,0,2,,-0.90
3.600000,-83.8750,-3.5000,0,2,,-0.90
3.602000,-87.8750,-4.1716,0,2,,-0.90
3.604000,-86.5000,-4.5681,0,2,,-0.90
3.606000,-85.1250,-4.6572,0,2,,-0.90
3.608000,-78.7500,-4.4685,0,2,,-0.90
3.610000,-82.3750,-4.0782,0,2,,-0.90
3.612000,-88.2500,-3.5819,0,2,,-0.90
3.614000,-89.1250,-3.0666,0,2,,-0.90
3.616000,-79.3750,-2.5854,0,2,,-0.90
3.618000,-79.1250,-2.1410,0,2,,-0.90
3.620000,-81.3750,-1.6829,0,2,,-0.90
3.622000,-87.5000,-1.1202,0,2,,-0.90
3.624000,-83.5000,-0.3485,0,2,,-0.90
3.626000,-77.7500,0.7213,0,2,,-0.90
3.628000,-76.8750,2.1398,0,2,,-0.90
3.630000,-73.6250,3.9098,0,2,,-0.90
3.632000,-74.8750,5.9840,0,2,,-0.90
3.634000,-77.6250,8.2680,0,2,,-0.90
3.636000,-72.7500,10.6232,0,2,,-0.90
3.638000,-69.3750,12.8730,0,2,,-0.90
3.640000,-66.2500,14.8142,0,2,,-0.90
3.642000,-65.1250,16.2369,0,2,,-0.90
3.644000,-64.7500,16.9498,0,2,,-0.90
3.646000,-62.7500,16.8096,0,2,,-0.90
3.648000,-61.8750,15.7479,0,2,,-0.90
3.650000,-66.1250,13.7914,0,2,,-0.90
3.652000,-72.2500,11.0680,0,2,,-0.90
3.654000,-77.6250,7.7961,0,2,,-0.90
3.656000,-75.5000,4.2583,0,2,,-0.90
3.658000,-83.6250,0.7646,0,2,,-0.90
3.660000,-85.3750,-2.3890,0,2,,-0.90
3.662000,-85.7500,-4.9589,0,2,,-0.90
3.664000,-89.0000,-6.7833,0,2,,-0.90
3.666000,-93.6250,-7.7969,0,2,,-0.90
3.668000,-85.3750,-8.0283,0,2,,-0.90
3.670000,-85.3750,-7.5815,0,2,,-0.90
3.672000,-90.5000,-6.6091,0,2,,-0.90
3.674000,-89.0000,-5.2852,0,2,,-0.90
3.676000,-88.3750,-3.7849,0,2,,-0.90
3.678000,-85.0000,-2.2711,0,2,,-0.90
3.680000,-84.8750,-0.8857,0,2,,-0.90
3.682000,-83.1250,0.2580,0,2,,-0.90
3.684000,-78.5000,1.0850,0,2,,-0.90
3.686000,-80.0000,1.5677,0,2,,-0.90
3.688000,-75.5000,1.7323,0,2,,-0.90
3.690000,-81.0000,1.6569,0,2,,-0.90
3.692000,-80.8750,1.4567,0,2,,-0.90
3.694000,-85.8750,1.2579,0,2,,-0.90
3.696000,-85.2500,1.1674,0,2,,-0.90
3.698000,-84.7500,1.2469,0,2,,-0.90
3.700000,-80.5000,1.5029,0,2,,-0.90
3.702000,-78.3750,1.8941,0,2,,-0.90
3.704000,-77.6250,2.3527,0,2,,-0.90
3.706000,-76.6250,2.8105,0,2,,-0.90
3.708000,-77.5000,3.2192,0,2,,-0.90
3.710000,-82.8750,3.5578,0,2,,-0.90
3.712000,-81.3750,3.8300,0,2,,-0.90
3.714000,-80.2500,4.0522,0,2,,-0.90
3.716000,-78.7500,4.2433,0,2,,-0.90
3.718000,-79.1250,4.4161,0,2,,-0.90
3.720000,-80.7500,4.5743,0,2,,-0.90
3.722000,-75.6250,4.7124,0,2,,-0.90
3.724000,-75.5000,4.8185,0,2,,-0.90
3.726000,-78.3750,4.8767,0,2,,-0.90
3.728000,-76.3750,4.8702,0,2,,-0.90
3.730000,-81.8750,4.7835,0,2,,-0.90
3.732000,-83.0000,4.6066,0,2,,-0.90
3.734000,-78.5000,4.3431,0,2,,-0.90
3.736000,-78.1250,4.0219,0,2,,-0.90
3.738000,-74.6250,3.7061,0,2,,-0.90
3.740000,-78.5000,3.4921,0,2,,-0.90
3.742000,-80.3750,3.4916,0,2,,-0.90
3.744000,-82.7500,3.7998,0,2,,-0.90
3.746000,-82.8750,4.4603,0,2,,-0.90
3.748000,-77.5000,5.4417,0,2,,-0.90
3.750000,-73.7500,6.6378,0,2,,-0.90
3.752000,-80.5000,7.8912,0,2,,-0.90
3.754000,-71.0000,9.0324,0,2,,-0.90
3.756000,-69.0000,9.9207,0,2,,-0.90
3.758000,-74.7500,10.4733,0,2,,-0.90
3.760000,-73.5000,10.6746,0,2,,-0.90
3.762000,-75.5000,10.5668,0,2,,-0.90
3.764000,-74.0000,10.2272,0,2,,-0.90
3.766000,-72.6250,9.7466,0,2,,-0.90
3.768000,-72.1250,9.2132,0,2,,-0.90
3.770000,-75.3750,8.7067,0,2,,-0.90
3.772000,-75.6250,8.2965,0,2,,-0.90
3.774000,-76.7500,8.0423,0,2,,-0.90
3.776000,-76.0000,7.9907,0,2,,-0.90
3.778000,-74.6250,8.1711,0,2,,-0.90
3.780000,-79.0000,8.5889,0,2,,-0.90
3.782000,-73.3750,9.2212,0,2,,-0.90
3.784000,-71.8750,10.0176,0,2,,-0.90
3.786000,-69.0000,10.9066,0,2,,-0.90
3.788000,-71.5000,11.8052,0,2,,-0.90
3.790000,-72.8750,12.6293,0,2,,-0.90
3.792000,-74.1250,13.3016,0,2,,-0.90
3.794000,-69.7500,13.7581,0,2,,-0.90
3.796000,-69.1250,13.9552,0,2,,-0.90
3.798000,-69.2500,13.8770,0,2,,-0.90
3.800000,-72.1250,13.5406,0,2,,-0.90
3.802000,-68.3750,12.9975,0,2,,-0.90
3.804000,-69.5000,12.3298,0,2,,-0.90
3.806000,-70.5000,11.6414,0,2,,-0.90
3.808000,-72.2500,11.0438,0,2,,-0.90
3.810000,-72.6250,10.6395,0,2,,-0.90
3.812000,-78.2500,10.5042,0,2,,-0.90
3.814000,-77.5000,10.6737,0,2,,-0.90
3.816000,-71.5000,11.1417,0,2,,-0.90
3.818000,-69.5000,11.8684,0,2,,-0.90
3.820000,-67.5000,12.7962,0,2,,-0.90
3.822000,-65.3750,13.8639,0,2,,-0.90
3.824000,-69.1250,15.0113,0,2,,-0.90
3.826000,-71.2500,16.1724,0,2,,-0.90
3.828000,-69.2500,17.2645,0,2,,-0.90
3.830000,-63.6250,18.1824,0,2,,-0.90
3.832000,-66.2500,18.8051,0,2,,-0.90
3.834000,-64.2500,19.0156,0,2,,-0.90
3.836000,-64.1250,18.7270,0,2,,-0.90
3.838000,-65.5000,17.9071,0,2,,-0.90
3.840000,-66.1250,16.5936,0,2,,-0.90
3.842000,-67.8750,14.8984,0,2,,-0.90
3.844000,-71.3750,12.9978,0,2,,-0.90
3.846000,-66.8750,11.1133,0,2,,-0.90
3.848000,-72.1250,9.4817,0,2,,-0.90
3.850000,-78.1250,8.3192,0,2,,-0.90
3.852000,-78.8750,7.7828,0,2,,-0.90
3.854000,-78.7500,7.9371,0,2,,-0.90
3.856000,-75.7500,8.7377,0,2,,-0.90
3.858000,-74.3750,10.0358,0,2,,-0.90
3.860000,-68.3750,11.6058,0,2,,-0.90
3.862000,-65.3750,13.1884,0,2,,-0.90
3.864000,-68.6250,14.5366,0,2,,-0.90
3.866000,-65.0000,15.4552,0,2,,-0.90
3.868000,-68.3750,15.8250,0,2,,-0.90
3.870000,-69.8750,15.6112,0,2,,-0.90
3.872000,-70.1250,14.8580,0,2,,-0.90
3.874000,-68.3750,13.6758,0,2,,-0.90
3.876000,-70.3750,12.2223,0,2,,-0.90
3.878000,-71.0000,10.6794,0,2,,-0.90
3.880000,-74.2500,9.2279,0,2,,-0.90
3.882000,-73.5000,8.0202,0,2,,-0.90
3.884000,-76.6250,7.1572,0,2,,-0.90
3.886000,-76.6250,6.6739,0,2,,-0.90
3.888000,-75.6250,6.5383,0,2,,-0.90
3.890000,-75.8750,6.6636,0,2,,-0.90
3.892000,-75.0000,6.9303,0,2,,-0.90
3.894000,-76.0000,7.2118,0,2,,-0.90
3.896000,-74.6250,7.3973,0,2,,-0.90
3.898000,-77.2500,7.4074,0,2,,-0.90
3.900000,-74.5000,7.2023,0,2,,-0.90
3.902000,-73.2500,6.7840,0,2,,-0.90
3.904000,-75.1250,6.1933,0,2,,-0.90
3.906000,-71.8750,5.5024,0,2,,-0.90
3.908000,-77.2500,4.8008,0,2,,-0.90
3.910000,-84.7500,4.1773,0,2,,-0.90
3.912000,-82.3750,3.7006,0,2,,-0.90
3.914000,-75.5000,3.4079,0,2,,-0.90
3.916000,-77.1250,3.3028,0,2,,-0.90
3.918000,-75.5000,3.3634,0,2,,-0.90
3.920000,-80.3750,3.5519,0,2,,-0.90
3.922000,-82.8750,3.8245,0,2,,-0.90
3.924000,-69.3750,4.1365,0,2,,-0.90
3.926000,-69.8750,4.4474,0,2,,-0.90
3.928000,-83.1250,4.7216,0,2,,-0.90
3.930000,-81.0000,4.9251,0,2,,-0.90
3.932000,-78.6250,5.0207,0,2,,-0.90
3.934000,-76.8750,4.9680,0,2,,-0.90
3.936000,-71.3750,4.7331,0,2,,-0.90
3.938000,-76.5000,4.3018,0,2,,-0.90
3.940000,-77.0000,3.6920,0,2,,-0.90
3.942000,-77.2500,2.9555,0,2,,-0.90
3.944000,-77.2500,2.1712,0,2,,-0.90
3.946000,-77.7500,1.4297,0,2,,-0.90
3.948000,-80.5000,0.8150,0,2,,-0.90
3.950000,-84.6250,0.3883,0,2,,-0.90
3.952000,-82.2500,0.1774,0,2,,-0.90
3.954000,-79.0000,0.1753,0,2,,-0.90
3.956000,-77.3750,0.3483,0,2,,-0.90
3.958000,-81.7500,0.6503,0,2,,-0.90
3.960000,-77.6250,1.0363,0,2,,-0.90
3.962000,-75.7500,1.4720,0,2,,-0.90
3.964000,-76.2500,1.9378,0,2,,-0.90
3.966000,-77.2500,2.4252,0,2,,-0.90
3.968000,-81.2500,4.0930,0,3,,-0.98
3.970000,-83.3750,3.9186,0,3,,-0.98
3.972000,-80.8750,3.7255,0,3,,-0.98
3.974000,-80.6250,3.5477,0,3,,-0.98
3.976000,-75.3750,3.4134,0,3,,-0.98
3.978000,-77.1250,3.3498,0,3,,-0.98
3.980000,-78.1250,3.3863,0,3,,-0.98
3.982000,-82.2500,3.5491,0,3,,-0.98
3.984000,-78.5000,3.8498,0,3,,-0.98
3.986000,-80.1250,4.2729,0,3,,-0.98
3.988000,-81.2500,4.7713,0,3,,-0.98
3.990000,-76.5000,5.2723,0,3,,-0.98
3.992000,-74.7500,5.6949,0,3,,-0.98
3.994000,-78.5000,5.9688,0,3,,-0.98
3.996000,-77.5000,6.0516,0,3,,-0.98
3.998000,-76.2500,5.9342,0,3,,-0.98
4.000000,-77.1250,5.6379,0,3,,-0.98
4.002000,-78.2500,5.2039,0,3,,-0.98
4.004000,-79.3750,4.6803,0,3,,-0.98
4.006000,-78.0000,4.1122,0,3,,-0.98
4.008000,-79.5000,3.5371,0,3,,-0.98
4.010000,-83.6250,2.9867,0,3,,-0.98
4.012000,-82.2500,2.4928,0,3,,-0.98
4.014000,-76.6250,2.0941,0,3,,-0.98
4.016000,-79.6250,1.8390,0,3,,-0.98
4.018000,-82.7500,1.7808,0,3,,-0.98
4.020000,-83.7500,1.9625,0,3,,-0.98
4.022000,-81.2500,2.3983,0,3,,-0.98
4.024000,-80.8750,3.0588,0,3,,-0.98
4.026000,-79.8750,3.8687,0,3,,-0.98
4.028000,-78.6250,4.7198,0,3,,-0.98
4.030000,-73.8750,5.4938,0,3,,-0.98
4.032000,-79.6250,6.0885,0,3,,-0.98
4.034000,-79.2500,6.4386,0,3,,-0.98
4.036000,-75.2500,6.5252,0,3,,-0.98
4.038000,-78.0000,6.3751,0,3,,-0.98
4.040000,-76.2500,6.0510,0,3,,-0.98
4.042000,-76.2500,5.6362,0,3,,-0.98
4.044000,-80.6250,5.2173,0,3,,-0.98
4.046000,-78.5000,4.8690,0,3,,-0.98
4.048000,-78.5000,4.6437,0,3,,-0.98
4.050000,-77.3750,4.5666,0,3,,-0.98
4.052000,-81.7500,4.6371,0,3,,-0.98
4.054000,-81.2500,4.8327,0,3,,-0.98
4.056000,-77.7500,5.1161,0,3,,-0.98
4.058000,-80.1250,5.4453,0,3,,-0.98
4.060000,-75.0000,5.7852,0,3,,-0.98
4.062000,-73.8750,6.1185,0,3,,-0.98
4.064000,-75.8750,6.4503,0,3,,-0.98
4.066000,-76.7500,6.8031,0,3,,-0.98
4.068000,-78.1250,7.2013,0,3,,-0.98
4.070000,-77.7500,7.6498,0,3,,-0.98
4.072000,-79.3750,8.1161,0,3,,-0.98
4.074000,-78.0000,8.5235,0,3,,-0.98
4.076000,-73.5000,8.7597,0,3,,-0.98
4.078000,-73.5000,8.7030,0,3,,-0.98
4.080000,-74.6250,8.2555,0,3,,-0.98
4.082000,-72.3750,7.3765,0,3,,-0.98
4.084000,-76.6250,6.1042,0,3,,-0.98
4.086000,-81.5000,4.5602,0,3,,-0.98
4.088000,-79.5000,2.9345,0,3,,-0.98
4.090000,-79.6250,1.4564,0,3,,-0.98
4.092000,-92.1250,0.3547,0,3,,-0.98
4.094000,-85.5000,-0.1821,0,3,,-0.98
4.096000,-79.8750,-0.0387,0,3,,-0.98
4.098000,-82.8750,0.8064,0,3,,-0.98
4.100000,-82.5000,2.2753,0,3,,-0.98
4.102000,-78.7500,4.1989,0,3,,-0.98
4.104000,-77.8750,6.3362,0,3,,-0.98
4.106000,-76.5000,8.4047,0,3,,-0.98
4.108000,-74.2500,10.1213,0,3,,-0.98
4.110000,-69.7500,11.2451,0,3,,-0.98
4.112000,-74.1250,11.6196,0,3,,-0.98
4.114000,-74.0000,11.2023,0,3,,-0.98
4.116000,-71.7500,10.0769,0,3,,-0.98
4.118000,-73.6250,8.4459,0,3,,-0.98
4.120000,-78.5000,6.6015,0,3,,-0.98
4.122000,-80.2500,4.8818,0,3,,-0.98
4.124000,-78.0000,3.6158,0,3,,-0.98
4.126000,-76.2500,3.0683,0,3,,-0.98
4.128000,-83.6250,3.3895,0,3,,-0.98
4.130000,-85.8750,4.5804,0,3,,-0.98
4.132000,-79.5000,6.4797,0,3,,-0.98
4.134000,-79.7500,8.7840,0,3,,-0.98
4.136000,-77.1250,11.1031,0,3,,-0.98
4.138000,-62.8750,13.0439,0,3,,-0.98
4.140000,-61.1250,14.3020,0,3,,-0.98
4.142000,-60.6250,14.7337,0,3,,-0.98
4.144000,-72.5000,14.3838,0,3,,-0.98
4.146000,-73.8750,13.4583,0,3,,-0.98
4.148000,-76.1250,12.2535,0,3,,-0.98
4.150000,-74.3750,11.0672,0,3,,-0.98
4.152000,-80.6250,10.1220,0,3,,-0.98
4.154000,-78.2500,9.5210,0,3,,-0.98
4.156000,-72.7500,9.2458,0,3,,-0.98
4.158000,-66.7500,9.1900,0,3,,-0.98
4.160000,-67.6250,9.2121,0,3,,-0.98
4.162000,-80.5000,9.1849,0,3,,-0.98
4.164000,-76.3750,9.0280,0,3,,-0.98
4.166000,-79.0000,8.7203,0,3,,-0.98
4.168000,-72.7500,8.2990,0,3,,-0.98
4.170000,-70.2500,7.8510,0,3,,-0.98
4.172000,-82.1250,7.4980,0,3,,-0.98
4.174000,-76.8750,7.3744,0,3,,-0.98
4.176000,-77.1250,7.5977,0,3,,-0.98
4.178000,-75.0000,8.2388,0,3,,-0.98
4.180000,-76.6250,9.2990,0,3,,-0.98
4.182000,-73.7500,10.7008,0,3,,-0.98
4.184000,-72.8750,12.2960,0,3,,-0.98
4.186000,-71.3750,13.8911,0,3,,-0.98
4.188000,-64.6250,15.2871,0,3,,-0.98
4.190000,-67.5000,16.3219,0,3,,-0.98
4.192000,-64.8750,16.9040,0,3,,-0.98
4.194000,-61.0000,17.0255,0,3,,-0.98
4.196000,-72.6250,16.7491,0,3,,-0.98
4.198000,-72.2500,16.1740,0,3,,-0.98
4.200000,-73.6250,15.3958,0,3,,-0.98
4.202000,-72.2500,14.4784,0,3,,-0.98
4.204000,-67.7500,13.4511,0,3,,-0.98
4.206000,-66.5000,12.3312,0,3,,-0.98
4.208000,-64.1250,11.1546,0,3,,-0.98
4.210000,-71.3750,9.9980,0,3,,-0.98
4.212000,-84.2500,8.9733,0,3,,-0.98
4.214000,-83.7500,8.1991,0,3,,-0.98
4.216000,-75.0000,7.7604,0,3,,-0.98
4.218000,-72.1250,7.6797,0,3,,-0.98
4.220000,-75.6250,7.9061,0,3,,-0.98
4.222000,-78.5000,8.3261,0,3,,-0.98
4.224000,-76.0000,8.7864,0,3,,-0.98
4.226000,-73.1250,9.1261,0,3,,-0.98
4.228000,-71.0000,9.2084,0,3,,-0.98
4.230000,-71.6250,8.9472,0,3,,-0.98
4.232000,-78.6250,8.3188,0,3,,-0.98
4.234000,-80.8750,7.3569,0,3,,-0.98
4.236000,-80.5000,6.1351,0,3,,-0.98
4.238000,-78.7500,4.7476,0,3,,-0.98
4.240000,-80.6250,3.2959,0,3,,-0.98
4.242000,-77.6250,1.8824,0,3,,-0.98
4.244000,-81.6250,0.6081,0,3,,-0.98
4.246000,-82.2500,-0.4343,0,3,,-0.98
4.248000,-87.6250,-1.1738,0,3,,-0.98
4.250000,-91.8750,-1.5793,0,3,,-0.98
4.252000,-85.8750,-1.6739,0,3,,-0.98
4.254000,-86.3750,-1.5352,0,3,,-0.98
4.256000,-83.0000,-1.2802,0,3,,-0.98
4.258000,-85.2500,-1.0373,0,3,,-0.98
4.260000,-79.0000,-0.9156,0,3,,-0.98
4.262000,-84.7500,-0.9832,0,3,,-0.98
4.264000,-87.5000,-1.2598,0,3,,-0.98
4.266000,-86.5000,-1.7242,0,3,,-0.98
4.268000,-88.6250,-2.3294,0,3,,-0.98
4.270000,-89.5000,-3.0175,0,3,,-0.98
4.272000,-85.5000,-3.7288,0,3,,-0.98
4.274000,-82.8750,-4.4040,0,3,,-0.98
4.276000,-92.5000,-4.9858,0,3,,-0.98
4.278000,-87.6250,-5.4249,0,3,,-0.98
4.280000,-89.5000,-5.6926,0,3,,-0.98
4.282000,-91.2500,-5.7957,0,3,,-0.98
4.284000,-91.7500,-5.7879,0,3,,-0.98
4.286000,-90.8750,-5.7698,0,3,,-0.98
4.288000,-91.3750,-5.8721,0,3,,-0.98
4.290000,-87.8750,-6.2257,0,3,,-0.98
4.292000,-88.5000,-6.9228,0,3,,-0.98
4.294000,-91.0000,-7.9832,0,3,,-0.98
4.296000,-88.5000,-9.3373,0,3,,-0.98
4.298000,-96.3750,-10.8334,0,3,,-0.98
4.300000,-99.1250,-12.2689,0,3,,-0.98
4.302000,-98.2500,-13.4372,0,3,,-0.98
4.304000,-99.2500,-14.1748,0,3,,-0.98
4.306000,-98.5000,-14.3962,0,3,,-0.98
4.308000,-97.2500,-14.1078,0,3,,-0.98
4.310000,-102.7500,-13.3986,0,3,,-0.98
4.312000,-88.3750,-12.4125,0,3,,-0.98
4.314000,-98.5000,-11.3107,0,3,,-0.98
4.316000,-91.6250,-10.2324,0,3,,-0.98
4.318000,-93.2500,-9.2667,0,3,,-0.98
4.320000,-89.1250,-8.4389,0,3,,-0.98
4.322000,-92.1250,-7.7171,0,3,,-0.98
4.324000,-89.7500,-7.0329,0,3,,-0.98
4.326000,-94.0000,-6.3135,0,3,,-0.98
4.328000,-91.1250,-5.5123,0,3,,-0.98
4.330000,-89.3750,-4.6299,0,3,,-0.98
4.332000,-87.0000,-3.7172,0,3,,-0.98
4.334000,-84.2500,-2.8610,0,3,,-0.98
4.336000,-87.6250,-2.1578,0,3,,-0.98
4.338000,-82.2500,-1.6851,0,3,,-0.98
4.340000,-85.3750,-1.4791,0,3,,-0.98
4.342000,-84.0000,-1.5242,0,3,,-0.98
4.344000,-84.6250,-1.7583,0,3,,-0.98
4.346000,-85.0000,-2.0903,0,3,,-0.98
4.348000,-88.1250,-2.4256,0,3,,-0.98
4.350000,-90.8750,-2.6921,0,3,,-0.98
4.352000,-87.2500,-2.8562,0,3,,-0.98
4.354000,-86.5000,-2.9230,0,3,,-0.98
4.356000,-84.0000,-2.9218,0,3,,-0.98
4.358000,-82.8750,-2.8815,0,3,,-0.98
4.360000,-85.0000,-2.8102,0,3,,-0.98
4.362000,-85.6250,-2.6869,0,3,,-0.98
4.364000,-90.8750,-2.4690,0,3,,-0.98
4.366000,-87.2500,-2.1109,0,3,,-0.98
4.368000,-82.0000,-1.5838,0,3,,-0.98
4.370000,-83.3750,-0.8901,0,3,,-0.98
4.372000,-88.8750,-0.0667,0,3,,-0.98
4.374000,-80.2500,0.8203,0,3,,-0.98
4.376000,-80.3750,1.6875,0,3,,-0.98
4.378000,-81.0000,2.4506,0,3,,-0.98
4.380000,-80.3750,3.0398,0,3,,-0.98
4.382000,-80.8750,3.4103,0,3,,-0.98
4.384000,-78.3750,3.5476,0,3,,-0.98
4.386000,-80.8750,3.4661,0,3,,-0.98
4.388000,-80.8750,3.2049,0,3,,-0.98
4.390000,-78.2500,2.8199,0,3,,-0.98
4.392000,-82.1250,2.3757,0,3,,-0.98
4.394000,-81.8750,1.9357,0,3,,-0.98
4.396000,-83.3750,1.5541,0,3,,-0.98
4.398000,-79.0000,1.2676,0,3,,-0.98
4.400000,-83.5000,1.0908,0,3,,-0.98
4.402000,-83.5000,1.0130,0,3,,-0.98
4.404000,-82.2500,0.9986,0,3,,-0.98
4.406000,-84.3750,0.9923,0,3,,-0.98
4.408000,-79.2500,0.9289,0,3,,-0.98
4.410000,-81.6250,0.7481,0,3,,-0.98
4.412000,-82.8750,0.4085,0,3,,-0.98
4.414000,-83.7500,-0.1016,0,3,,-0.98
4.416000,-84.3750,-0.7598,0,3,,-0.98
4.418000,-86.1250,-1.5116,0,3,,-0.98
4.420000,-83.8750,-2.2787,0,3,,-0.98
4.422000,-84.0000,-2.9700,0,3,,-0.98
4.424000,-91.5000,-3.4964,0,3,,-0.98
4.426000,-85.5000,-3.7851,0,3,,-0.98
4.428000,-86.7500,-3.7932,0,3,,-0.98
4.430000,-83.5000,-3.5153,0,3,,-0.98
4.432000,-87.1250,-2.9865,0,3,,-0.98
4.434000,-87.7500,-2.2812,0,3,,-0.98
4.436000,-85.3750,-1.5070,0,3,,-0.98
4.438000,-83.7500,-0.7939,0,3,,-0.98
4.440000,-81.2500,-0.2778,0,3,,-0.98
4.442000,-83.5000,-0.0819,0,3,,-0.98
4.444000,-85.1250,-0.2969,0,3,,-0.98
4.446000,-84.1250,-0.9654,0,3,,-0.98
4.448000,-87.3750,-2.0686,0,3,,-0.98
4.450000,-82.6250,-3.5189,0,3,,-0.98
4.452000,-82.0000,-5.1595,0,3,,-0.98
4.454000,-88.7500,-6.7791,0,3,,-0.98
4.456000,-94.7500,-8.1445,0,3,,-0.98
4.458000,-96.0000,-9.0478,0,3,,-0.98
4.460000,-91.6250,-9.3566,0,3,,-0.98
4.462000,-97.1250,-9.0502,0,3,,-0.98
4.464000,-91.5000,-8.2310,0,3,,-0.98
4.466000,-89.1250,-7.1034,0,3,,-0.98
4.468000,-88.0000,-5.9278,0,3,,-0.98
4.470000,-83.5000,-4.9590,0,3,,-0.98
4.472000,-83.3750,-4.3882,0,3,,-0.98
4.474000,-84.5000,-4.3044,0,3,,-0.98
4.476000,-89.3750,-4.6857,0,3,,-0.98
4.478000,-91.6250,-5.4215,0,3,,-0.98
4.480000,-93.8750,-6.3548,0,3,,-0.98
4.482000,-92.1250,-7.3278,0,3,,-0.98
4.484000,-87.6250,-8.2170,0,3,,-0.98
4.486000,-90.7500,-8.9489,0,3,,-0.98
4.488000,-92.6250,-9.4989,0,3,,-0.98
4.490000,-88.1250,-9.8794,0,3,,-0.98
4.492000,-94.5000,-10.1245,0,3,,-0.98
4.494000,-95.5000,-10.2753,0,3,,-0.98
4.496000,-95.5000,-10.3678,0,3,,-0.98
4.498000,-90.1250,-10.4228,0,3,,-0.98
4.500000,-90.1250,-10.4395,0,3,,-0.98
4.502000,-93.2500,-10.3950,0,3,,-0.98
4.504000,-95.7500,-10.2532,0,3,,-0.98
4.506000,-92.6250,-9.9818,0,3,,-0.98
4.508000,-90.8750,-9.5707,0,3,,-0.98
4.510000,-92.8750,-9.0446,0,3,,-0.98
4.512000,-91.1250,-8.4656,0,3,,-0.98
4.514000,-90.8750,-7.9234,0,3,,-0.98
4.516000,-89.8750,-7.5171,0,3,,-0.98
4.518000,-88.6250,-7.3311,0,3,,-0.98
4.520000,-92.2500,-7.4133,0,3,,-0.98
4.522000,-89.7500,-7.7590,0,3,,-0.98
4.524000,-85.0000,-8.3065,0,3,,-0.98
4.526000,-94.3750,-8.9439,0,3,,-0.98
4.528000,-94.0000,-9.5262,0,3,,-0.98
4.530000,-93.8750,-9.8996,0,3,,-0.98
4.532000,-89.6250,-9.9234,0,3,,-0.98
4.534000,-88.5000,-9.4898,0,3,,-0.98
4.536000,-91.0000,-8.5376,0,3,,-0.98
4.538000,-91.7500,-7.0658,0,3,,-0.98
4.540000,-90.6250,-5.1424,0,3,,-0.98
4.542000,-90.5000,-2.9056,0,3,,-0.98
4.544000,-86.5000,-0.5473,0,3,,-0.98
4.546000,-73.3750,1.7213,0,3,,-0.98
4.548000,-69.1250,3.7163,0,3,,-0.98
4.550000,-76.6250,5.3232,0,3,,-0.98
4.552000,-77.0000,6.5152,0,3,,-0.98
4.554000,-76.5000,7.3435,0,3,,-0.98
4.556000,-76.2500,7.9012,0,3,,-0.98
4.558000,-77.7500,8.2806,0,3,,-0.98
4.560000,-74.5000,8.5362,0,3,,-0.98
4.562000,-78.8750,8.6687,0,3,,-0.98
4.564000,-71.6250,8.6329,0,3,,-0.98
4.566000,-73.8750,8.3681,0,3,,-0.98
4.568000,-60.7500,7.8360,0,3,,-0.98
4.570000,-67.1250,7.0510,0,3,,-0.98
4.572000,-88.0000,6.0856,0,3,,-0.98
4.574000,-84.1250,5.0487,0,3,,-0.98
4.576000,-77.1250,4.0498,0,3,,-0.98
4.578000,-78.3750,3.1677,0,3,,-0.98
4.580000,-79.0000,2.4376,0,3,,-0.98
4.582000,-85.3750,1.8571,0,3,,-0.98
4.584000,-74.3750,1.4048,0,3,,-0.98
4.586000,-80.1250,1.0615,0,3,,-0.98
4.588000,-73.8750,0.8257,0,3,,-0.98
4.590000,-82.7500,0.7157,0,3,,-0.98
4.592000,-89.6250,0.7587,0,3,,-0.98
4.594000,-82.5000,0.9730,0,3,,-0.98
4.596000,-80.1250,1.3540,0,3,,-0.98
4.598000,-74.7500,1.8730,0,3,,-0.98
4.600000,-85.7500,2.4868,0,3,,-0.98
4.602000,-77.7500,3.1514,0,3,,-0.98
4.604000,-70.6250,3.8323,0,3,,-0.98
4.606000,-77.3750,4.5076,0,3,,-0.98
4.608000,-79.3750,5.1613,0,3,,-0.98
4.610000,-80.2500,5.7719,0,3,,-0.98
4.612000,-79.0000,6.3034,0,3,,-0.98
4.614000,-69.0000,6.7068,0,3,,-0.98
4.616000,-73.1250,6.9338,0,3,,-0.98
4.618000,-76.1250,6.9542,0,3,,-0.98
4.620000,-77.5000,6.7703,0,3,,-0.98
4.622000,-75.0000,6.4187,0,3,,-0.98
4.624000,-73.3750,5.9638,0,3,,-0.98
4.626000,-75.6250,5.4832,0,3,,-0.98
4.628000,-78.6250,5.0512,0,3,,-0.98
4.630000,-79.7500,4.7238,0,3,,-0.98
4.632000,-75.3750,4.5292,0,3,,-0.98
4.634000,-73.0000,4.4671,0,3,,-0.98
4.636000,-80.0000,4.5133,0,3,,-0.98
4.638000,-78.1250,4.6275,0,3,,-0.98
4.640000,-79.6250,4.7588,0,3,,-0.98
4.642000,-75.0000,4.8522,0,3,,-0.98
4.644000,-75.2500,4.8546,0,3,,-0.98
4.646000,-80.1250,4.7242,0,3,,-0.98
4.648000,-77.1250,4.4395,0,3,,-0.98
4.650000,-70.2500,4.0075,0,3,,-0.98
4.652000,-80.7500,3.4675,0,3,,-0.98
4.654000,-75.7500,2.8859,0,3,,-0.98
4.656000,-81.1250,2.3407,0,3,,-0.98
4.658000,-84.8750,1.9003,0,3,,-0.98
4.660000,-83.6250,1.6021,0,3,,-0.98
4.662000,-81.6250,1.4442,0,3,,-0.98
4.664000,-76.6250,1.3922,0,3,,-0.98
4.666000,-72.8750,1.3987,0,3,,-0.98
4.668000,-73.7500,1.4249,0,3,,-0.98
4.670000,-90.5000,1.4514,0,3,,-0.98
4.672000,-81.6250,1.4756,0,3,,-0.98
4.674000,-78.2500,1.5005,0,3,,-0.98
4.676000,-82.2500,1.5260,0,3,,-0.98
4.678000,-76.5000,1.5451,0,3,,-0.98
4.680000,-76.7500,1.5455,0,3,,-0.98
4.682000,-85.8750,1.5104,0,3,,-0.98
4.684000,-80.7500,1.4188,0,3,,-0.98
4.686000,-80.7500,1.2467,0,3,,-0.98
4.688000,-82.6250,0.9751,0,3,,-0.98
4.690000,-75.6250,0.6046,0,3,,-0.98
4.692000,-72.8750,0.1701,0,3,,-0.98
4.694000,-82.5000,-0.2545,0,3,,-0.98
4.696000,-86.6250,-0.5705,0,3,,-0.98
4.698000,-86.6250,-0.6849,0,3,,-0.98
4.700000,-85.0000,-0.5449,0,3,,-0.98
4.702000,-81.3750,-0.1611,0,3,,-0.98
4.704000,-79.1250,0.3910,0,3,,-0.98
4.706000,-79.6250,0.9923,0,3,,-0.98
4.708000,-76.7500,1.5128,0,3,,-0.98
4.710000,-74.2500,1.8479,0,3,,-0.98
4.712000,-87.5000,1.9439,0,3,,-0.98
4.714000,-76.5000,1.8105,0,3,,-0.98
4.716000,-78.0000,1.5161,0,3,,-0.98
4.718000,-80.7500,1.1728,0,3,,-0.98
4.720000,-82.5000,0.9092,0,3,,-0.98
4.722000,-80.3750,0.8404,0,3,,-0.98
4.724000,-83.1250,1.0387,0,3,,-0.98
4.726000,-77.5000,1.5149,0,3,,-0.98
4.728000,-80.6250,2.2140,0,3,,-0.98
4.730000,-78.6250,3.0275,0,3,,-0.98
4.732000,-71.3750,3.8180,0,3,,-0.98
4.734000,-73.7500,4.4485,0,3,,-0.98
4.736000,-85.8750,4.8084,0,3,,-0.98
4.738000,-82.3750,4.8335,0,3,,-0.98
4.740000,-71.2500,4.5184,0,3,,-0.98
4.742000,-62.5000,3.9221,0,3,,-0.98
4.744000,-84.6250,3.1616,0,3,,-0.98
4.746000,-80.0000,2.3879,0,3,,-0.98
4.748000,-83.7500,1.7471,0,3,,-0.98
4.750000,-84.2500,1.3405,0,3,,-0.98
4.752000,-76.1250,1.2016,0,3,,-0.98
4.754000,-79.8750,1.2972,0,3,,-0.98
4.756000,-80.2500,1.5500,0,3,,-0.98
4.758000,-73.6250,1.8712,0,3,,-0.98
4.760000,-82.6250,2.1899,0,3,,-0.98
4.762000,-77.1250,2.4693,0,3,,-0.98
4.764000,-75.8750,2.7080,0,3,,-0.98
4.766000,-82.6250,2.9283,0,3,,-0.98
4.768000,-78.6250,3.1597,0,3,,-0.98
4.770000,-74.6250,3.4236,0,3,,-0.98
4.772000,-78.7500,3.7254,0,3,,-0.98
4.774000,-78.3750,4.0560,0,3,,-0.98
4.776000,-77.0000,4.3994,0,3,,-0.98
4.778000,-75.3750,4.7432,0,3,,-0.98
4.780000,-75.3750,5.0883,0,3,,-0.98
4.782000,-73.6250,5.4519,0,3,,-0.98
4.784000,-75.2500,5.8636,0,3,,-0.98
4.786000,-75.2500,6.3522,0,3,,-0.98
4.788000,-77.0000,6.9301,0,3,,-0.98
4.790000,-70.3750,7.5800,0,3,,-0.98
4.792000,-75.1250,8.2509,0,3,,-0.98
4.794000,-74.0000,8.8647,0,3,,-0.98
4.796000,-69.7500,9.3323,0,3,,-0.98
4.798000,-69.0000,9.5740,0,3,,-0.98
4.800000,-74.8750,9.5389,0,3,,-0.98
4.802000,-71.2500,9.2167,0,3,,-0.98
4.804000,-68.7500,8.6402,0,3,,-0.98
4.806000,-73.3750,7.8781,0,3,,-0.98
4.808000,-73.2500,7.0204,0,3,,-0.98
4.810000,-79.5000,6.1602,0,3,,-0.98
4.812000,-75.5000,5.3767,0,3,,-0.98
4.814000,-77.5000,4.7259,0,3,,-0.98
4.816000,-67.6250,4.2381,0,3,,-0.98
4.818000,-82.8750,3.9195,0,3,,-0.98
4.820000,-77.6250,3.7532,0,3,,-0.98
4.822000,-80.3750,3.6993,0,3,,-0.98
4.824000,-80.3750,3.6971,0,3,,-0.98
4.826000,-69.6250,3.6741,0,3,,-0.98
4.828000,-76.8750,3.5630,0,3,,-0.98
4.830000,-76.0000,3.3190,0,3,,-0.98
4.832000,-78.8750,2.9309,0,3,,-0.98
4.834000,-85.3750,2.4229,0,3,,-0.98
4.836000,-74.6250,1.8477,0,3,,-0.98
4.838000,-75.5000,1.2745,0,3,,-0.98
4.840000,-83.8750,0.7744,0,3,,-0.98
4.842000,-84.1250,0.4031,0,3,,-0.98
4.844000,-80.6250,0.1863,0,3,,-0.98
4.846000,-80.7500,0.1124,0,3,,-0.98
4.848000,-78.6250,0.1378,0,3,,-0.98
4.850000,-76.5000,0.2018,0,3,,-0.98
4.852000,-83.0000,0.2454,0,3,,-0.98
4.854000,-83.1250,0.2264,0,3,,-0.98
4.856000,-79.5000,0.1284,0,3,,-0.98
4.858000,-81.5000,-0.0377,0,3,,-0.98
4.860000,-82.8750,-0.2373,0,3,,-0.98
4.862000,-79.2500,-0.4201,0,3,,-0.98
4.864000,-82.2500,-0.5309,0,3,,-0.98
4.866000,-80.0000,-0.5212,0,3,,-0.98
4.868000,-80.7500,-0.3612,0,3,,-0.98
4.870000,-79.7500,-0.0489,0,3,,-0.98
4.872000,-83.7500,0.3845,0,3,,-0.98
4.874000,-79.6250,0.8754,0,3,,-0.98
4.876000,-82.6250,1.3362,0,3,,-0.98
4.878000,-81.6250,1.6728,0,3,,-0.98
4.880000,-73.6250,1.8074,0,3,,-0.98
4.882000,-78.3750,1.7017,0,3,,-0.98
4.884000,-81.2500,1.3730,0,3,,-0.98
4.886000,-77.3750,0.8961,0,3,,-0.98
4.888000,-77.0000,0.3909,0,3,,-0.98
4.890000,-82.6250,-0.0050,0,3,,-0.98
4.892000,-84.1250,-0.1693,0,3,,-0.98
4.894000,-82.5000,-0.0278,0,3,,-0.98
4.896000,-85.2500,0.4240,0,3,,-0.98
4.898000,-77.8750,1.1174,0,3,,-0.98
4.900000,-76.2500,1.9268,0,3,,-0.98
4.902000,-80.3750,2.6997,0,3,,-0.98
4.904000,-75.8750,3.2910,0,3,,-0.98
4.906000,-74.1250,3.5934,0,3,,-0.98
4.908000,-75.6250,3.5567,0,3,,-0.98
4.910000,-79.0000,3.1927,0,3,,-0.98
4.912000,-80.7500,2.5666,0,3,,-0.98
4.914000,-80.5000,1.7796,0,3,,-0.98
4.916000,-79.0000,0.9472,0,3,,-0.98
4.918000,-80.5000,0.1805,0,3,,-0.98
4.920000,-85.3750,-0.4290,0,3,,-0.98
4.922000,-81.0000,-0.8183,0,3,,-0.98
4.924000,-78.8750,-0.9571,0,3,,-0.98
4.926000,-82.5000,-0.8459,0,3,,-0.98
4.928000,-77.1250,-0.5118,0,3,,-0.98
4.930000,-83.2500,-0.0037,0,3,,-0.98
4.932000,-83.6250,0.6134,0,3,,-0.98
4.934000,-82.1250,1.2644,0,3,,-0.98
4.936000,-76.3750,1.8743,0,3,,-0.98
4.938000,-78.7500,2.3816,0,3,,-0.98
4.940000,-75.3750,2.7492,0,3,,-0.98
4.942000,-77.2500,2.9684,0,3,,-0.98
4.944000,-79.2500,3.0516,0,3,,-0.98
4.946000,-79.7500,3.0177,0,3,,-0.98
4.948000,-81.7500,2.8779,0,3,,-0.98
4.950000,-78.0000,2.6298,0,3,,-0.98
4.952000,-76.0000,2.2654,0,3,,-0.98
4.954000,-78.2500,1.7867,0,3,,-0.98
4.956000,-71.5000,1.2207,0,3,,-0.98
4.958000,-85.3750,0.6219,0,3,,-0.98
4.960000,-91.2500,0.0603,0,3,,-0.98
4.962000,-81.6250,-0.3999,0,3,,-0.98
4.964000,-78.1250,-0.7168,0,3,,-0.98
4.966000,-75.7500,-0.8761,0,3,,-0.98
4.968000,-81.5000,-0.8866,0,3,,-0.98
4.970000,-86.0000,-0.7743,0,3,,-0.98
4.972000,-79.3750,-0.5795,0,3,,-0.98
4.974000,-81.8750,-0.3564,0,3,,-0.98
4.976000,-85.7500,-0.1723,0,3,,-0.98
4.978000,-83.1250,-0.0996,0,3,,-0.98
4.980000,-81.6250,-0.2007,0,3,,-0.98
4.982000,-78.7500,-0.5064,0,3,,-0.98
4.984000,-83.2500,-0.9909,0,3,,-0.98
4.986000,-79.3750,-1.5562,0,3,,-0.98
4.988000,-77.0000,-2.0309,0,3,,-0.98
4.990000,-81.5000,-2.1937,0,3,,-0.98
4.992000,-87.1250,-1.8195,0,3,,-0.98
4.994000,-84.6250,-0.7427,0,3,,-0.98
4.996000,-85.1250,1.0818,0,3,,-0.98
4.998000,-78.3750,3.5372,0,3,,-0.98
5.000000,-78.8750,6.3407,0,3,,-0.98
5.002000,-72.1250,9.0811,0,3,,-0.98
5.004000,-70.0000,11.2949,0,3,,-0.98
5.006000,-66.3750,12.5644,0,3,,-0.98
5.008000,-62.1250,12.6156,0,3,,-0.98
5.010000,-60.1250,11.3903,0,3,,-0.98
5.012000,-71.2500,9.0682,0,3,,-0.98
5.014000,-77.0000,6.0302,0,3,,-0.98
5.016000,-88.3750,2.7687,0,3,,-0.98
5.018000,-88.7500,-0.2259,0,3,,-0.98
5.020000,-83.7500,-2.5687,0,3,,-0.98
5.022000,-86.5000,-4.0454,0,3,,-0.98
5.024000,-82.3750,-4.6264,0,3,,-0.98
5.026000,-85.0000,-4.4363,0,3,,-0.98
5.028000,-81.1250,-3.6966,0,3,,-0.98
5.030000,-81.7500,-2.6604,0,3,,-0.98
5.032000,-82.8750,-1.5573,0,3,,-0.98
5.034000,-84.2500,-0.5579,0,3,,-0.98
5.036000,-84.7500,0.2394,0,3,,-0.98
5.038000,-79.1250,0.8042,0,3,,-0.98
5.040000,-78.6250,1.1592,0,3,,-0.98
5.042000,-81.8750,1.3587,0,3,,-0.98
5.044000,-78.2500,1.4663,0,3,,-0.98
5.046000,-83.5000,1.5331,0,3,,-0.98
5.048000,-75.0000,1.5825,0,3,,-0.98
5.050000,-82.3750,1.6041,0,3,,-0.98
5.052000,-83.3750,1.5575,0,3,,-0.98
5.054000,-79.2500,1.3869,0,3,,-0.98
5.056000,-82.2500,1.0428,0,3,,-0.98
5.058000,-77.3750,0.5060,0,3,,-0.98
5.060000,-79.8750,-0.1940,0,3,,-0.98
5.062000,-79.7500,-0.9752,0,3,,-0.98
5.064000,-85.6250,-1.7164,0,3,,-0.98
5.066000,-86.0000,-2.2872,0,3,,-0.98
5.068000,-85.6250,-2.5833,0,3,,-0.98
5.070000,-82.0000,-2.5556,0,3,,-0.98
5.072000,-88.5000,-2.2235,0,3,,-0.98
5.074000,-85.7500,-1.6690,0,3,,-0.98
5.076000,-80.8750,-1.0131,0,3,,-0.98
5.078000,-76.0000,-0.3823,0,3,,-0.98
5.080000,-84.1250,0.1241,0,3,,-0.98
5.082000,-76.3750,0.4549,0,3,,-0.98
5.084000,-84.8750,0.6094,0,3,,-0.98
5.086000,-82.8750,0.6232,0,3,,-0.98
5.088000,-82.2500,0.5471,0,3,,-0.98
5.090000,-78.6250,0.4269,0,3,,-0.98
5.092000,-85.0000,0.2907,0,3,,-0.98
5.094000,-80.5000,0.1464,0,3,,-0.98
5.096000,-81.0000,-0.0146,0,3,,-0.98
5.098000,-83.5000,-0.2095,0,3,,-0.98
5.100000,-83.5000,-0.4543,0,3,,-0.98
5.102000,-83.5000,-0.7564,0,3,,-0.98
5.104000,-76.2500,-1.1073,0,3,,-0.98
5.106000,-84.0000,-1.4804,0,3,,-0.98
5.108000,-89.0000,-1.8338,0,3,,-0.98
5.110000,-78.8750,-2.1195,0,3,,-0.98
5.112000,-88.5000,-2.2945,0,3,,-0.98
5.114000,-88.1250,-2.3296,0,3,,-0.98
5.116000,-82.1250,-2.2140,0,3,,-0.98
5.118000,-79.2500,-1.9538,0,3,,-0.98
5.120000,-84.8750,-1.5688,0,3,,-0.98
5.122000,-85.5000,-1.0903,0,3,,-0.98
5.124000,-79.5000,-0.5629,0,3,,-0.98
5.126000,-85.2500,-0.0458,0,3,,-0.98
5.128000,-82.6250,0.3898,0,3,,-0.98
5.130000,-84.6250,0.6713,0,3,,-0.98
5.132000,-79.3750,0.7429,0,3,,-0.98
5.134000,-77.6250,0.5869,0,3,,-0.98
5.136000,-80.0000,0.2400,0,3,,-0.98
5.138000,-81.8750,-0.2066,0,3,,-0.98
5.140000,-87.2500,-0.6260,0,3,,-0.98
5.142000,-82.2500,-0.8889,0,3,,-0.98
5.144000,-84.8750,-0.9006,0,3,,-0.98
5.146000,-83.8750,-0.6291,0,3,,-0.98
5.148000,-82.5000,-0.1148,0,3,,-0.98
5.150000,-83.6250,0.5395,0,3,,-0.98
5.152000,-82.3750,1.1967,0,3,,-0.98
5.154000,-76.8750,1.7215,0,3,,-0.98
5.156000,-74.7500,2.0152,0,3,,-0.98
5.158000,-79.7500,2.0363,0,3,,-0.98
5.160000,-85.3750,1.8002,0,3,,-0.98
5.162000,-87.8750,1.3606,0,3,,-0.98
5.164000,-77.8750,0.7850,0,3,,-0.98
5.166000,-79.1250,0.1344,0,3,,-0.98
5.168000,-84.8750,-0.5441,0,3,,-0.98
5.170000,-84.8750,-1.2169,0,3,,-0.98
5.172000,-80.7500,-1.8592,0,3,,-0.98
5.174000,-87.1250,-2.4510,0,3,,-0.98
5.176000,-89.1250,-2.9741,0,3,,-0.98
5.178000,-89.5000,-3.4104,0,3,,-0.98
5.180000,-80.3750,-3.7395,0,3,,-0.98
5.182000,-82.7500,-3.9356,0,3,,-0.98
5.184000,-86.1250,-3.9687,0,3,,-0.98
5.186000,-90.2500,-3.8134,0,3,,-0.98
5.188000,-87.1250,-3.4643,0,3,,-0.98
5.190000,-84.1250,-2.9520,0,3,,-0.98
5.192000,-90.5000,-2.3508,0,3,,-0.98
5.194000,-87.1250,-1.7720,0,3,,-0.98
5.196000,-82.3750,-1.3429,0,3,,-0.98
5.198000,-79.8750,-1.1755,0,3,,-0.98
5.200000,-82.0000,-1.3348,0,3,,-0.98
5.202000,-84.0000,-1.8178,0,3,,-0.98
5.204000,-87.1250,-2.5517,0,3,,-0.98
5.206000,-87.7500,-3.4098,0,3,,-0.98
5.208000,-86.1250,-4.2411,0,3,,-0.98
5.210000,-86.7500,-4.9026,0,3,,-0.98
5.212000,-91.7500,-5.2893,0,3,,-0.98
5.214000,-89.6250,-5.3553,0,3,,-0.98
5.216000,-90.2500,-5.1225,0,3,,-0.98
5.218000,-90.5000,-4.6736,0,3,,-0.98
5.220000,-81.7500,-4.1294,0,3,,-0.98
5.222000,-85.2500,-3.6166,0,3,,-0.98
5.224000,-84.1250,-3.2357,0,3,,-0.98
5.226000,-87.0000,-3.0365,0,3,,-0.98
5.228000,-90.1250,-3.0090,0,3,,-0.98
5.230000,-85.8750,-3.0869,0,3,,-0.98
5.232000,-84.7500,-3.1593,0,3,,-0.98
5.234000,-83.6250,-3.0906,0,3,,-0.98
5.236000,-93.2500,-2.7429,0,3,,-0.98
5.238000,-82.5000,-2.0017,0,3,,-0.98
5.240000,-86.1250,-0.8000,0,3,,-0.98
5.242000,-80.3750,0.8659,0,3,,-0.98
5.244000,-81.1250,2.9290,0,3,,-0.98
5.246000,-78.8750,5.2558,0,3,,-0.98
5.248000,-70.7500,7.6565,0,3,,-0.98
5.250000,-75.3750,9.9008,0,3,,-0.98
5.252000,-73.1250,11.7364,0,3,,-0.98
5.254000,-79.1250,12.9107,0,3,,-0.98
5.256000,-71.0000,13.1995,0,3,,-0.98
5.258000,-66.7500,12.4435,0,3,,-0.98
5.260000,-69.5000,10.5897,0,3,,-0.98
5.262000,-71.3750,7.7227,0,3,,-0.98
5.264000,-80.1250,4.0728,0,3,,-0.98
5.266000,-84.5000,-0.0072,0,3,,-0.98
5.268000,-85.2500,-4.0952,0,3,,-0.98
5.270000,-97.6250,-7.7692,0,3,,-0.98
5.272000,-98.1250,-10.6787,0,3,,-0.98
5.274000,-100.1250,-12.5979,0,3,,-0.98
5.276000,-96.1250,-13.4527,0,3,,-0.98
5.278000,-92.7500,-13.3140,0,3,,-0.98
5.280000,-92.7500,-12.3684,0,3,,-0.98
5.282000,-96.6250,-10.8762,0,3,,-0.98
5.284000,-96.7500,-9.1278,0,3,,-0.98
5.286000,-91.5000,-7.4053,0,3,,-0.98
5.288000,-85.2500,-5.9468,0,3,,-0.98
5.290000,-90.0000,-4.9186,0,3,,-0.98
5.292000,-89.2500,-4.3968,0,3,,-0.98
5.294000,-89.1250,-4.3638,0,3,,-0.98
5.296000,-89.1250,-4.7204,0,3,,-0.98
5.298000,-86.7500,-5.3111,0,3,,-0.98
5.300000,-92.3750,-5.9576,0,3,,-0.98
5.302000,-93.1250,-6.4938,0,3,,-0.98
5.304000,-89.2500,-6.7974,0,3,,-0.98
5.306000,-90.1250,-6.8104,0,3,,-0.98
5.308000,-90.1250,-6.5453,0,3,,-0.98
5.310000,-94.1250,-6.0788,0,3,,-0.98
5.312000,-93.6250,-5.5321,0,3,,-0.98
5.314000,-88.2500,-5.0416,0,3,,-0.98
5.316000,-85.1250,-4.7238,0,3,,-0.98
5.318000,-86.8750,-4.6426,0,3,,-0.98
5.320000,-89.7500,-4.7896,0,3,,-0.98
5.322000,-87.6250,-5.0856,0,3,,-0.98
5.324000,-88.7500,-5.4033,0,3,,-0.98
5.326000,-93.5000,-5.6045,0,3,,-0.98
5.328000,-94.2500,-5.5798,0,3,,-0.98
5.330000,-93.2500,-5.2788,0,3,,-0.98
5.332000,-87.2500,-4.7199,0,3,,-0.98
5.334000,-87.2500,-3.9786,0,3,,-0.98
5.336000,-85.1250,-3.1610,0,3,,-0.98
5.338000,-85.7500,-2.3752,0,3,,-0.98
5.340000,-86.3750,-1.7098,0,3,,-0.98
5.342000,-90.1250,-1.2252,0,3,,-0.98
5.344000,-85.3750,-0.9540,0,3,,-0.98
5.346000,-86.0000,-0.9039,0,3,,-0.98
5.348000,-85.5000,-1.0595,0,3,,-0.98
5.350000,-83.8750,-1.3812,0,3,,-0.98
5.352000,-85.5000,-1.8070,0,3,,-0.98
5.354000,-89.3750,-2.2584,0,3,,-0.98
5.356000,-91.1250,-2.6547,0,3,,-0.98
5.358000,-89.5000,-2.9286,0,3,,-0.98
5.360000,-83.7500,-3.0398,0,3,,-0.98
5.362000,-85.7500,-2.9827,0,3,,-0.98
5.364000,-88.5000,-2.7877,0,3,,-0.98
5.366000,-92.0000,-2.5183,0,3,,-0.98
5.368000,-89.0000,-2.2613,0,3,,-0.98
5.370000,-88.3750,-2.1096,0,3,,-0.98
5.372000,-86.6250,-2.1364,0,3,,-0.98
5.374000,-79.6250,-2.3670,0,3,,-0.98
5.376000,-86.6250,-2.7612,0,3,,-0.98
5.378000,-94.7500,-3.2157,0,3,,-0.98
5.380000,-88.8750,-3.5881,0,3,,-0.98
5.382000,-87.1250,-3.7356,0,3,,-0.98
5.384000,-90.3750,-3.5548,0,3,,-0.98
5.386000,-91.7500,-3.0108,0,3,,-0.98
5.388000,-88.8750,-2.1473,0,3,,-0.98
5.390000,-86.8750,-1.0763,0,3,,-0.98
5.392000,-83.1250,0.0513,0,3,,-0.98
5.394000,-81.6250,1.0839,0,3,,-0.98
5.396000,-82.1250,1.9039,0,3,,-0.98
5.398000,-83.3750,2.4472,0,3,,-0.98
5.400000,-85.5000,2.7051,0,3,,-0.98
5.402000,-85.7500,2.7102,0,3,,-0.98
5.404000,-84.6250,2.5189,0,3,,-0.98
5.406000,-81.0000,2.1971,0,3,,-0.98
5.408000,-80.6250,1.8133,0,3,,-0.98
5.410000,-82.5000,1.4362,0,3,,-0.98
5.412000,-87.0000,1.1299,0,3,,-0.98
5.414000,-88.1250,0.9446,0,3,,-0.98
5.416000,-87.8750,0.9057,0,3,,-0.98
5.418000,-85.0000,1.0073,0,3,,-0.98
5.420000,-81.2500,1.2158,0,3,,-0.98
5.422000,-84.2500,1.4816,0,3,,-0.98
5.424000,-82.7500,1.7554,0,3,,-0.98
5.426000,-86.6250,2.0012,0,3,,-0.98
5.428000,-82.0000,2.2037,0,3,,-0.98
5.430000,-82.0000,2.3689,0,3,,-0.98
5.432000,-81.8750,2.5163,0,3,,-0.98
5.434000,-88.1250,2.6661,0,3,,-0.98
5.436000,-86.3750,2.8231,0,3,,-0.98
5.438000,-84.2500,2.9657,0,3,,-0.98
5.440000,-83.6250,3.0451,0,3,,-0.98
5.442000,-80.1250,2.9986,0,3,,-0.98
5.444000,-82.3750,2.7717,0,3,,-0.98
5.446000,-82.2500,2.3408,0,3,,-0.98
5.448000,-83.3750,1.7275,0,3,,-0.98
5.450000,-85.5000,0.9989,0,3,,-0.98
5.452000,-81.5000,3.1479,0,4,,-1.10
5.454000,-88.3750,2.8607,0,4,,-1.10
5.456000,-81.3750,2.5877,0,4,,-1.10
5.458000,-79.7500,2.3906,0,4,,-1.10
5.460000,-88.2500,2.3151,0,4,,-1.10
5.462000,-84.5000,2.3776,0,4,,-1.10
5.464000,-87.2500,2.5547,0,4,,-1.10
5.466000,-81.8750,2.7829,0,4,,-1.10
5.468000,-83.1250,2.9688,0,4,,-1.10
5.470000,-84.0000,3.0085,0,4,,-1.10
5.472000,-85.2500,2.8104,0,4,,-1.10
5.474000,-85.1250,2.3153,0,4,,-1.10
5.476000,-84.3750,1.5110,0,4,,-1.10
5.478000,-85.0000,0.4381,0,4,,-1.10
5.480000,-87.6250,-0.8130,0,4,,-1.10
5.482000,-87.7500,-2.1152,0,4,,-1.10
5.484000,-91.7500,-3.3247,0,4,,-1.10
5.486000,-92.1250,-4.3065,0,4,,-1.10
5.488000,-90.7500,-4.9583,0,4,,-1.10
5.490000,-92.1250,-5.2303,0,4,,-1.10
5.492000,-93.8750,-5.1370,0,4,,-1.10
5.494000,-96.8750,-4.7577,0,4,,-1.10
5.496000,-92.8750,-4.2247,0,4,,-1.10
5.498000,-86.7500,-3.6962,0,4,,-1.10
5.500000,-87.3750,-3.3200,0,4,,-1.10
5.502000,-87.6250,-3.1966,0,4,,-1.10
5.504000,-91.1250,-3.3553,0,4,,-1.10
5.506000,-90.7500,-3.7492,0,4,,-1.10
5.508000,-92.1250,-4.2712,0,4,,-1.10
5.510000,-94.7500,-4.7840,0,4,,-1.10
5.512000,-92.1250,-5.1559,0,4,,-1.10
5.514000,-94.6250,-5.2921,0,4,,-1.10
5.516000,-96.1250,-5.1557,0,4,,-1.10
5.518000,-88.1250,-4.7722,0,4,,-1.10
5.520000,-89.7500,-4.2206,0,4,,-1.10
5.522000,-89.0000,-3.6131,0,4,,-1.10
5.524000,-90.2500,-3.0724,0,4,,-1.10
5.526000,-93.7500,-2.7101,0,4,,-1.10
5.528000,-92.5000,-2.6092,0,4,,-1.10
5.530000,-90.2500,-2.8082,0,4,,-1.10
5.532000,-86.1250,-3.2884,0,4,,-1.10
5.534000,-89.6250,-3.9692,0,4,,-1.10
5.536000,-90.8750,-4.7174,0,4,,-1.10
5.538000,-93.8750,-5.3741,0,4,,-1.10
5.540000,-97.6250,-5.7942,0,4,,-1.10
5.542000,-93.6250,-5.8860,0,4,,-1.10
5.544000,-98.7500,-5.6361,0,4,,-1.10
5.546000,-91.0000,-5.1093,0,4,,-1.10
5.548000,-86.6250,-4.4253,0,4,,-1.10
5.550000,-89.7500,-3.7198,0,4,,-1.10
5.552000,-90.3750,-3.1076,0,4,,-1.10
5.554000,-91.8750,-2.6600,0,4,,-1.10
5.556000,-92.1250,-2.4006,0,4,,-1.10
5.558000,-90.6250,-2.3160,0,4,,-1.10
5.560000,-90.3750,-2.3715,0,4,,-1.10
5.562000,-87.5000,-2.5262,0,4,,-1.10
5.564000,-90.8750,-2.7426,0,4,,-1.10
5.566000,-90.0000,-2.9920,0,4,,-1.10
5.568000,-92.3750,-3.2568,0,4,,-1.10
5.570000,-92.8750,-3.5319,0,4,,-1.10
5.572000,-90.5000,-3.8226,0,4,,-1.10
5.574000,-94.2500,-4.1411,0,4,,-1.10
5.576000,-95.1250,-4.4986,0,4,,-1.10
5.578000,-89.1250,-4.8963,0,4,,-1.10
5.580000,-89.3750,-5.3153,0,4,,-1.10
5.582000,-93.3750,-5.7118,0,4,,-1.10
5.584000,-95.3750,-6.0213,0,4,,-1.10
5.586000,-92.7500,-6.1730,0,4,,-1.10
5.588000,-94.3750,-6.1114,0,4,,-1.10
5.590000,-97.2500,-5.8172,0,4,,-1.10
5.592000,-97.0000,-5.3216,0,4,,-1.10
5.594000,-95.7500,-4.7062,0,4,,-1.10
5.596000,-89.0000,-4.0861,0,4,,-1.10
5.598000,-87.6250,-3.5796,0,4,,-1.10
5.600000,-86.3750,-3.2757,0,4,,-1.10
5.602000,-90.1250,-3.2108,0,4,,-1.10
5.604000,-96.3750,-3.3650,0,4,,-1.10
5.606000,-95.5000,-3.6740,0,4,,-1.10
5.608000,-91.3750,-4.0496,0,4,,-1.10
5.610000,-92.2500,-4.3978,0,4,,-1.10
5.612000,-91.7500,-4.6311,0,4,,-1.10
5.614000,-94.2500,-4.6758,0,4,,-1.10
5.616000,-89.5000,-4.4799,0,4,,-1.10
5.618000,-91.6250,-4.0224,0,4,,-1.10
5.620000,-92.8750,-3.3249,0,4,,-1.10
5.622000,-94.1250,-2.4584,0,4,,-1.10
5.624000,-93.2500,-1.5408,0,4,,-1.10
5.626000,-88.0000,-0.7181,0,4,,-1.10
5.628000,-82.1250,-0.1315,0,4,,-1.10
5.630000,-88.3750,0.1209,0,4,,-1.10
5.632000,-87.7500,0.0117,0,4,,-1.10
5.634000,-88.5000,-0.4079,0,4,,-1.10
5.636000,-92.3750,-1.0235,0,4,,-1.10
5.638000,-91.0000,-1.6904,0,4,,-1.10
5.640000,-87.3750,-2.2714,0,4,,-1.10
5.642000,-94.2500,-2.6698,0,4,,-1.10
5.644000,-91.7500,-2.8482,0,4,,-1.10
5.646000,-93.3750,-2.8311,0,4,,-1.10
5.648000,-90.6250,-2.6891,0,4,,-1.10
5.650000,-88.7500,-2.5106,0,4,,-1.10
5.652000,-89.2500,-2.3712,0,4,,-1.10
5.654000,-90.8750,-2.3104,0,4,,-1.10
5.656000,-90.7500,-2.3248,0,4,,-1.10
5.658000,-89.0000,-2.3789,0,4,,-1.10
5.660000,-92.1250,-2.4281,0,4,,-1.10
5.662000,-97.0000,-2.4449,0,4,,-1.10
5.664000,-92.2500,-2.4357,0,4,,-1.10
5.666000,-89.0000,-2.4406,0,4,,-1.10
5.668000,-87.1250,-2.5160,0,4,,-1.10
5.670000,-90.0000,-2.7080,0,4,,-1.10
5.672000,-92.2500,-3.0305,0,4,,-1.10
5.674000,-94.8750,-3.4568,0,4,,-1.10
5.676000,-93.5000,-3.9274,0,4,,-1.10
5.678000,-93.5000,-4.3669,0,4,,-1.10
5.680000,-90.6250,-4.7032,0,4,,-1.10
5.682000,-94.3750,-4.8828,0,4,,-1.10
5.684000,-96.1250,-4.8784,0,4,,-1.10
5.686000,-90.7500,-4.6908,0,4,,-1.10
5.688000,-91.1250,-4.3449,0,4,,-1.10
5.690000,-91.5000,-3.8838,0,4,,-1.10
5.692000,-96.1250,-3.3651,0,4,,-1.10
5.694000,-98.3750,-2.8574,0,4,,-1.10
5.696000,-91.5000,-2.4343,0,4,,-1.10
5.698000,-86.5000,-2.1608,0,4,,-1.10
5.700000,-86.0000,-2.0733,0,4,,-1.10
5.702000,-90.6250,-2.1620,0,4,,-1.10
5.704000,-90.7500,-2.3658,0,4,,-1.10
5.706000,-89.2500,-2.5858,0,4,,-1.10
5.708000,-95.6250,-2.7135,0,4,,-1.10
5.710000,-92.8750,-2.6665,0,4,,-1.10
5.712000,-95.8750,-2.4206,0,4,,-1.10
5.714000,-92.8750,-2.0246,0,4,,-1.10
5.716000,-90.8750,-1.5936,0,4,,-1.10
5.718000,-90.8750,-1.2781,0,4,,-1.10
5.720000,-83.8750,-1.2184,0,4,,-1.10
5.722000,-87.6250,-1.4965,0,4,,-1.10
5.724000,-88.6250,-2.1030,0,4,,-1.10
5.726000,-88.7500,-2.9306,0,4,,-1.10
5.728000,-96.8750,-3.7986,0,4,,-1.10
5.730000,-98.0000,-4.5010,0,4,,-1.10
5.732000,-97.0000,-4.8634,0,4,,-1.10
5.734000,-96.8750,-4.7908,0,4,,-1.10
5.736000,-94.5000,-4.2908,0,4,,-1.10
5.738000,-88.7500,-3.4678,0,4,,-1.10
5.740000,-86.5000,-2.4926,0,4,,-1.10
5.742000,-93.2500,-1.5593,0,4,,-1.10
5.744000,-90.5000,-0.8415,0,4,,-1.10
5.746000,-85.6250,-0.4578,0,4,,-1.10
5.748000,-88.5000,-0.4533,0,4,,-1.10
5.750000,-89.0000,-0.7982,0,4,,-1.10
5.752000,-96.1250,-1.4055,0,4,,-1.10
5.754000,-97.7500,-2.1587,0,4,,-1.10
5.756000,-91.2500,-2.9411,0,4,,-1.10
5.758000,-90.0000,-3.6534,0,4,,-1.10
5.760000,-89.3750,-4.2201,0,4,,-1.10
5.762000,-90.3750,-4.5858,0,4,,-1.10
5.764000,-97.2500,-4.7137,0,4,,-1.10
5.766000,-93.3750,-4.5877,0,4,,-1.10
5.768000,-94.5000,-4.2193,0,4,,-1.10
5.770000,-95.2500,-3.6536,0,4,,-1.10
5.772000,-96.8750,-2.9689,0,4,,-1.10
5.774000,-90.1250,-2.2673,0,4,,-1.10
5.776000,-89.2500,-1.6563,0,4,,-1.10
5.778000,-86.5000,-1.2266,0,4,,-1.10
5.780000,-90.3750,-1.0324,0,4,,-1.10
5.782000,-91.5000,-1.0817,0,4,,-1.10
5.784000,-88.5000,-1.3369,0,4,,-1.10
5.786000,-92.8750,-1.7259,0,4,,-1.10
5.788000,-93.2500,-2.1568,0,4,,-1.10
5.790000,-91.0000,-2.5354,0,4,,-1.10
5.792000,-92.1250,-2.7812,0,4,,-1.10
5.794000,-94.7500,-2.8415,0,4,,-1.10
5.796000,-94.2500,-2.6999,0,4,,-1.10
5.798000,-92.6250,-2.3779,0,4,,-1.10
5.800000,-86.6250,-1.9272,0,4,,-1.10
5.802000,-88.3750,-1.4139,0,4,,-1.10
5.804000,-90.7500,-0.9012,0,4,,-1.10
5.806000,-90.6250,-0.4359,0,4,,-1.10
5.808000,-88.1250,-0.0440,0,4,,-1.10
5.810000,-91.3750,0.2656,0,4,,-1.10
5.812000,-93.8750,0.4924,0,4,,-1.10
5.814000,-87.6250,0.6352,0,4,,-1.10
5.816000,-86.6250,0.6858,0,4,,-1.10
5.818000,-89.3750,0.6304,0,4,,-1.10
5.820000,-91.0000,0.4550,0,4,,-1.10
5.822000,-87.7500,0.1559,0,4,,-1.10
5.824000,-86.6250,-0.2500,0,4,,-1.10
5.826000,-87.1250,-0.7179,0,4,,-1.10
5.828000,-89.6250,-1.1774,0,4,,-1.10
5.830000,-97.0000,-1.5464,0,4,,-1.10
5.832000,-98.0000,-1.7534,0,4,,-1.10
5.834000,-91.2500,-1.7592,0,4,,-1.10
5.836000,-88.7500,-1.5653,0,4,,-1.10
5.838000,-85.2500,-1.2102,0,4,,-1.10
5.840000,-90.6250,-0.7549,0,4,,-1.10
5.842000,-88.1250,-0.2690,0,4,,-1.10
5.844000,-91.7500,0.1776,0,4,,-1.10
5.846000,-90.7500,0.5194,0,4,,-1.10
5.848000,-89.6250,0.6977,0,4,,-1.10
5.850000,-89.0000,0.6666,0,4,,-1.10
5.852000,-92.2500,0.4014,0,4,,-1.10
5.854000,-88.1250,-0.0917,0,4,,-1.10
5.856000,-86.6250,-0.7694,0,4,,-1.10
5.858000,-90.6250,-1.5528,0,4,,-1.10
5.860000,-92.7500,-2.3382,0,4,,-1.10
5.862000,-91.6250,-3.0163,0,4,,-1.10
5.864000,-94.6250,-3.4952,0,4,,-1.10
5.866000,-95.3750,-3.7193,0,4,,-1.10
5.868000,-95.0000,-3.6786,0,4,,-1.10
5.870000,-93.1250,-3.4069,0,4,,-1.10
5.872000,-91.1250,-2.9689,0,4,,-1.10
5.874000,-92.2500,-2.4436,0,4,,-1.10
5.876000,-92.2500,-1.9078,0,4,,-1.10
5.878000,-86.7500,-1.4251,0,4,,-1.10
5.880000,-94.2500,-1.0420,0,4,,-1.10
5.882000,-91.0000,-0.7869,0,4,,-1.10
5.884000,-88.5000,-0.6720,0,4,,-1.10
5.886000,-89.7500,-0.6941,0,4,,-1.10
5.888000,-90.0000,-0.8353,0,4,,-1.10
5.890000,-93.3750,-1.0667,0,4,,-1.10
5.892000,-93.7500,-1.3545,0,4,,-1.10
5.894000,-90.7500,-1.6682,0,4,,-1.10
5.896000,-91.0000,-1.9868,0,4,,-1.10
5.898000,-89.1250,-2.3007,0,4,,-1.10
5.900000,-95.8750,-2.6100,0,4,,-1.10
5.902000,-93.1250,-2.9185,0,4,,-1.10
5.904000,-89.5000,-3.2254,0,4,,-1.10
5.906000,-92.5000,-3.5166,0,4,,-1.10
5.908000,-90.1250,-3.7612,0,4,,-1.10
5.910000,-97.0000,-3.9175,0,4,,-1.10
5.912000,-98.1250,-3.9479,0,4,,-1.10
5.914000,-97.8750,-3.8376,0,4,,-1.10
5.916000,-92.7500,-3.6054,0,4,,-1.10
5.918000,-89.7500,-3.3004,0,4,,-1.10
5.920000,-88.6250,-2.9854,0,4,,-1.10
5.922000,-91.6250,-2.7155,0,4,,-1.10
5.924000,-90.2500,-2.5231,0,4,,-1.10
5.926000,-93.0000,-2.4155,0,4,,-1.10
5.928000,-97.2500,-2.3846,0,4,,-1.10
5.930000,-95.2500,-2.4230,0,4,,-1.10
5.932000,-93.2500,-2.5346,0,4,,-1.10
5.934000,-90.7500,-2.7363,0,4,,-1.10
5.936000,-92.1250,-3.0464,0,4,,-1.10
5.938000,-91.5000,-3.4670,0,4,,-1.10
5.940000,-93.3750,-3.9660,0,4,,-1.10
5.942000,-93.7500,-4.4660,0,4,,-1.10
5.944000,-93.3750,-4.8445,0,4,,-1.10
5.946000,-91.5000,-4.9464,0,4,,-1.10
5.948000,-93.0000,-4.6109,0,4,,-1.10
5.950000,-103.7500,-3.7066,0,4,,-1.10
5.952000,-96.3750,-2.1677,0,4,,-1.10
5.954000,-91.0000,-0.0166,0,4,,-1.10
5.956000,-79.7500,2.6352,0,4,,-1.10
5.958000,-81.3750,5.6071,0,4,,-1.10
5.960000,-79.1250,8.6788,0,4,,-1.10
5.962000,-77.8750,11.6166,0,4,,-1.10
5.964000,-76.5000,14.1899,0,4,,-1.10
5.966000,-78.7500,16.1788,0,4,,-1.10
5.968000,-75.6250,17.3833,0,4,,-1.10
5.970000,-73.7500,17.6380,0,4,,-1.10
5.972000,-69.3750,16.8385,0,4,,-1.10
5.974000,-74.8750,14.9709,0,4,,-1.10
5.976000,-74.5000,12.1364,0,4,,-1.10
5.978000,-76.3750,8.5561,0,4,,-1.10
5.980000,-84.5000,4.5511,0,4,,-1.10
5.982000,-91.5000,0.4962,0,4,,-1.10
5.984000,-95.5000,-3.2416,0,4,,-1.10
5.986000,-101.1250,-6.3669,0,4,,-1.10
5.988000,-98.7500,-8.7016,0,4,,-1.10
5.990000,-102.0000,-10.2035,0,4,,-1.10
5.992000,-103.2500,-10.9526,0,4,,-1.10
5.994000,-98.7500,-11.1106,0,4,,-1.10
5.996000,-97.0000,-10.8669,0,4,,-1.10
5.998000,-92.7500,-10.3865,0,4,,-1.10
6.000000,-98.2500,-9.7762,0,4,,-1.10
6.002000,-100.5000,-9.0789,0,4,,-1.10
6.004000,-103.3750,-8.2939,0,4,,-1.10
6.006000,-103.1250,-7.4107,0,4,,-1.10
6.008000,-94.0000,-6.4392,0,4,,-1.10
6.010000,-96.8750,-5.4219,0,4,,-1.10
6.012000,-94.5000,-4.4278,0,4,,-1.10
6.014000,-89.3750,-3.5326,0,4,,-1.10
6.016000,-88.2500,-2.7970,0,4,,-1.10
6.018000,-92.0000,-2.2536,0,4,,-1.10
6.020000,-94.5000,-1.9071,0,4,,-1.10
6.022000,-93.2500,-1.7453,0,4,,-1.10
6.024000,-92.0000,-1.7538,0,4,,-1.10
6.026000,-93.3750,-1.9241,0,4,,-1.10
6.028000,-92.0000,-2.2527,0,4,,-1.10
6.030000,-93.7500,-2.7307,0,4,,-1.10
6.032000,-91.0000,-3.3302,0,4,,-1.10
6.034000,-89.8750,-3.9947,0,4,,-1.10
6.036000,-93.0000,-4.6390,0,4,,-1.10
6.038000,-98.0000,-5.1627,0,4,,-1.10
6.040000,-96.7500,-5.4725,0,4,,-1.10
6.042000,-97.0000,-5.5054,0,4,,-1.10
6.044000,-96.0000,-5.2437,0,4,,-1.10
6.046000,-93.7500,-4.7144,0,4,,-1.10
6.048000,-90.6250,-3.9770,0,4,,-1.10
6.050000,-95.3750,-3.1053,0,4,,-1.10
6.052000,-90.8750,-2.1711,0,4,,-1.10
6.054000,-90.6250,-1.2345,0,4,,-1.10
6.056000,-88.6250,-0.3434,0,4,,-1.10
6.058000,-91.6250,0.4616,0,4,,-1.10
6.060000,-87.8750,1.1409,0,4,,-1.10
6.062000,-88.6250,1.6507,0,4,,-1.10
6.064000,-90.1250,1.9452,0,4,,-1.10
6.066000,-87.6250,1.9853,0,4,,-1.10
6.068000,-86.5000,1.7523,0,4,,-1.10
6.070000,-87.3750,1.2611,0,4,,-1.10
6.072000,-88.6250,0.5675,0,4,,-1.10
6.074000,-89.2500,-0.2366,0,4,,-1.10
6.076000,-90.2500,-1.0390,0,4,,-1.10
6.078000,-95.0000,-1.7314,0,4,,-1.10
6.080000,-93.0000,-2.2325,0,4,,-1.10
6.082000,-91.3750,-2.5039,0,4,,-1.10
6.084000,-92.2500,-2.5534,0,4,,-1.10
6.086000,-87.8750,-2.4261,0,4,,-1.10
6.088000,-95.5000,-2.1901,0,4,,-1.10
6.090000,-96.7500,-1.9193,0,4,,-1.10
6.092000,-87.5000,-1.6784,0,4,,-1.10
6.094000,-88.0000,-1.5100,0,4,,-1.10
6.096000,-88.0000,-1.4266,0,4,,-1.10
6.098000,-95.3750,-1.4104,0,4,,-1.10
6.100000,-94.8750,-1.4224,0,4,,-1.10
6.102000,-89.1250,-1.4137,0,4,,-1.10
6.104000,-90.2500,-1.3362,0,4,,-1.10
6.106000,-87.2500,-1.1484,0,4,,-1.10
6.108000,-91.3750,-0.8207,0,4,,-1.10
6.110000,-92.8750,-0.3419,0,4,,-1.10
6.112000,-91.2500,0.2716,0,4,,-1.10
6.114000,-87.5000,0.9707,0,4,,-1.10
6.116000,-87.7500,1.6766,0,4,,-1.10
6.118000,-89.8750,2.2933,0,4,,-1.10
6.120000,-86.2500,2.7309,0,4,,-1.10
6.122000,-83.1250,2.9301,0,4,,-1.10
6.124000,-84.5000,2.8846,0,4,,-1.10
6.126000,-85.0000,2.6486,0,4,,-1.10
6.128000,-89.5000,2.3274,0,4,,-1.10
6.130000,-90.5000,2.0494,0,4,,-1.10
6.132000,-89.1250,1.9300,0,4,,-1.10
6.134000,-88.1250,2.0391,0,4,,-1.10
6.136000,-88.6250,2.3836,0,4,,-1.10
6.138000,-85.0000,2.9085,0,4,,-1.10
6.140000,-85.6250,3.5155,0,4,,-1.10
6.142000,-82.0000,4.0928,0,4,,-1.10
6.144000,-87.2500,4.5445,0,4,,-1.10
6.146000,-84.1250,4.8141,0,4,,-1.10
6.148000,-83.0000,4.8941,0,4,,-1.10
6.150000,-86.0000,4.8231,0,4,,-1.10
6.152000,-84.5000,4.6706,0,4,,-1.10
6.154000,-86.3750,4.5152,0,4,,-1.10
6.156000,-85.6250,4.4214,0,4,,-1.10
6.158000,-84.8750,4.4232,0,4,,-1.10
6.160000,-86.6250,4.5171,0,4,,-1.10
6.162000,-84.7500,4.6678,0,4,,-1.10
6.164000,-83.0000,4.8236,0,4,,-1.10
6.166000,-83.1250,4.9361,0,4,,-1.10
6.168000,-85.3750,4.9781,0,4,,-1.10
6.170000,-84.0000,4.9533,0,4,,-1.10
6.172000,-84.1250,4.8945,0,4,,-1.10
6.174000,-84.7500,4.8527,0,4,,-1.10
6.176000,-82.3750,4.8786,0,4,,-1.10
6.178000,-88.8750,5.0037,0,4,,-1.10
6.180000,-85.6250,5.2262,0,4,,-1.10
6.182000,-82.6250,5.5063,0,4,,-1.10
6.184000,-83.0000,5.7742,0,4,,-1.10
6.186000,-82.3750,5.9478,0,4,,-1.10
6.188000,-82.8750,5.9534,0,4,,-1.10
6.190000,-84.6250,5.7429,0,4,,-1.10
6.192000,-85.8750,5.3045,0,4,,-1.10
6.194000,-82.7500,4.6650,0,4,,-1.10
6.196000,-80.6250,3.8842,0,4,,-1.10
6.198000,-87.8750,3.0436,0,4,,-1.10
6.200000,-91.8750,2.2288,0,4,,-1.10
6.202000,-87.3750,1.5109,0,4,,-1.10
6.204000,-87.8750,0.9338,0,4,,-1.10
6.206000,-89.3750,0.5094,0,4,,-1.10
6.208000,-90.0000,0.2248,0,4,,-1.10
6.210000,-87.7500,0.0539,0,4,,-1.10
6.212000,-87.7500,-0.0278,0,4,,-1.10
6.214000,-88.7500,-0.0328,0,4,,-1.10
6.216000,-89.8750,0.0422,0,4,,-1.10
6.218000,-88.2500,0.2127,0,4,,-1.10
6.220000,-87.2500,0.4955,0,4,,-1.10
6.222000,-88.8750,0.8955,0,4,,-1.10
6.224000,-93.2500,1.3936,0,4,,-1.10
6.226000,-86.6250,1.9410,0,4,,-1.10
6.228000,-89.2500,2.4649,0,4,,-1.10
6.230000,-83.7500,2.8850,0,4,,-1.10
6.232000,-82.5000,3.1369,0,4,,-1.10
6.234000,-81.0000,3.1909,0,4,,-1.10
6.236000,-87.8750,3.0597,0,4,,-1.10
6.238000,-88.3750,2.7876,0,4,,-1.10
6.240000,-90.1250,2.4295,0,4,,-1.10
6.242000,-90.5000,2.0286,0,4,,-1.10
6.244000,-85.6250,1.6044,0,4,,-1.10
6.246000,-86.0000,1.1558,0,4,,-1.10
6.248000,-86.8750,0.6743,0,4,,-1.10
6.250000,-86.3750,0.1590,0,4,,-1.10
6.252000,-91.6250,-0.3748,0,4,,-1.10
6.254000,-91.2500,-0.8979,0,4,,-1.10
6.256000,-90.1250,-1.3751,0,4,,-1.10
6.258000,-90.1250,-1.7753,0,4,,-1.10
6.260000,-92.6250,-2.0777,0,4,,-1.10
6.262000,-91.7500,-2.2729,0,4,,-1.10
6.264000,-89.2500,-2.3598,0,4,,-1.10
6.266000,-91.3750,-2.3406,0,4,,-1.10
6.268000,-92.1250,-2.2176,0,4,,-1.10
6.270000,-89.2500,-1.9932,0,4,,-1.10
6.272000,-91.8750,-1.6746,0,4,,-1.10
6.274000,-90.0000,-1.2788,0,4,,-1.10
6.276000,-90.2500,-0.8378,0,4,,-1.10
6.278000,-90.8750,-0.3976,0,4,,-1.10
6.280000,-88.1250,-0.0116,0,4,,-1.10
6.282000,-87.5000,0.2718,0,4,,-1.10
6.284000,-86.6250,0.4230,0,4,,-1.10
6.286000,-90.1250,0.4428,0,4,,-1.10
6.288000,-90.7500,0.3657,0,4,,-1.10
6.290000,-85.7500,0.2568,0,4,,-1.10
6.292000,-87.8750,0.2004,0,4,,-1.10
6.294000,-90.3750,0.2853,0,4,,-1.10
6.296000,-87.5000,0.5860,0,4,,-1.10
6.298000,-84.2500,1.1436,0,4,,-1.10
6.300000,-86.6250,1.9492,0,4,,-1.10
6.302000,-90.6250,2.9323,0,4,,-1.10
6.304000,-88.0000,3.9591,0,4,,-1.10
6.306000,-85.7500,4.8478,0,4,,-1.10
6.308000,-82.1250,5.4007,0,4,,-1.10
6.310000,-81.0000,5.4507,0,4,,-1.10
6.312000,-78.3750,4.9089,0,4,,-1.10
6.314000,-80.5000,3.7966,0,4,,-1.10
6.316000,-89.2500,2.2503,0,4,,-1.10
6.318000,-90.2500,0.4947,0,4,,-1.10
6.320000,-91.0000,-1.2051,0,4,,-1.10
6.322000,-93.5000,-2.6011,0,4,,-1.10
6.324000,-92.0000,-3.5091,0,4,,-1.10
6.326000,-92.6250,-3.8398,0,4,,-1.10
6.328000,-95.1250,-3.6058,0,4,,-1.10
6.330000,-90.1250,-2.9088,0,4,,-1.10
6.332000,-88.6250,-1.9114,0,4,,-1.10
6.334000,-86.2500,-0.8002,0,4,,-1.10
6.336000,-89.7500,0.2497,0,4,,-1.10
6.338000,-88.5000,1.1029,0,4,,-1.10
6.340000,-86.5000,1.6797,0,4,,-1.10
6.342000,-83.6250,1.9608,0,4,,-1.10
6.344000,-84.8750,1.9798,0,4,,-1.10
6.346000,-89.1250,1.8064,0,4,,-1.10
6.348000,-93.5000,1.5226,0,4,,-1.10
6.350000,-85.7500,1.2006,0,4,,-1.10
6.352000,-85.7500,0.8887,0,4,,-1.10
6.354000,-85.5000,0.6102,0,4,,-1.10
6.356000,-89.1250,0.3711,0,4,,-1.10
6.358000,-88.5000,0.1715,0,4,,-1.10
6.360000,-87.1250,0.0143,0,4,,-1.10
6.362000,-88.6250,-0.0892,0,4,,-1.10
6.364000,-86.2500,-0.1201,0,4,,-1.10
6.366000,-89.1250,-0.0597,0,4,,-1.10
6.368000,-90.3750,0.0993,0,4,,-1.10
6.370000,-89.1250,0.3402,0,4,,-1.10
6.372000,-90.2500,0.6157,0,4,,-1.10
6.374000,-87.1250,0.8540,0,4,,-1.10
6.376000,-87.5000,0.9773,0,4,,-1.10
6.378000,-82.7500,0.9285,0,4,,-1.10
6.380000,-85.5000,0.6967,0,4,,-1.10
6.382000,-84.7500,0.3299,0,4,,-1.10
6.384000,-88.7500,-0.0743,0,4,,-1.10
6.386000,-91.6250,-0.3975,0,4,,-1.10
6.388000,-94.0000,-0.5404,0,4,,-1.10
6.390000,-92.2500,-0.4570,0,4,,-1.10
6.392000,-88.7500,-0.1688,0,4,,-1.10
6.394000,-84.6250,0.2474,0,4,,-1.10
6.396000,-82.0000,0.6921,0,4,,-1.10
6.398000,-84.0000,1.0806,0,4,,-1.10
6.400000,-85.0000,1.3692,0,4,,-1.10
6.402000,-91.2500,1.5591,0,4,,-1.10
6.404000,-88.5000,1.6811,0,4,,-1.10
6.406000,-89.5000,1.7715,0,4,,-1.10
6.408000,-86.7500,1.8525,0,4,,-1.10
6.410000,-84.8750,1.9264,0,4,,-1.10
6.412000,-83.1250,1.9820,0,4,,-1.10
6.414000,-83.7500,2.0082,0,4,,-1.10
6.416000,-85.0000,2.0047,0,4,,-1.10
6.418000,-88.5000,1.9835,0,4,,-1.10
6.420000,-85.7500,1.9607,0,4,,-1.10
6.422000,-85.5000,1.9443,0,4,,-1.10
6.424000,-88.3750,1.9229,0,4,,-1.10
6.426000,-89.8750,1.8628,0,4,,-1.10
6.428000,-86.7500,1.7161,0,4,,-1.10
6.430000,-82.8750,1.4384,0,4,,-1.10
6.432000,-81.1250,1.0116,0,4,,-1.10
6.434000,-85.2500,0.4597,0,4,,-1.10
6.436000,-91.3750,-0.1516,0,4,,-1.10
6.438000,-92.6250,-0.7317,0,4,,-1.10
