timestamp_s,filtered_mV,loop,hr_bpm,snr_wb_db,snr_qrs_db
0.198000,-1336.6250,0,,,
0.208000,1019.0000,0,,,
0.218000,-1335.1250,0,,,
0.228000,1020.1250,0,,,
0.238000,-1336.1250,0,,,
0.248000,1020.0000,0,,,
0.258000,-1333.6250,0,,,
0.268000,1022.0000,0,,,
0.278000,-1335.5000,0,,,
0.288000,1019.3750,0,,,
0.298000,-1334.1250,0,,,
0.308000,1018.6250,0,,,
0.318000,-1336.0000,0,,,
0.328000,1018.5000,0,,,
0.338000,-1335.6250,0,,,
0.348000,1019.0000,0,,,
0.358000,-1335.0000,0,,,
0.368000,1018.2500,0,,,
0.378000,-1334.8750,0,,,
0.388000,1018.1250,0,,,
0.398000,-1335.2500,0,,,
0.408000,1019.6250,0,,,
0.418000,-1335.8750,0,,,
0.428000,1018.2500,0,,,
0.438000,-1335.3750,0,,,
0.448000,1018.2500,0,,,
0.458000,-1335.5000,0,,,
0.468000,1018.8750,0,,,
0.478000,-1333.5000,0,,,
0.488000,1018.5000,0,,,
0.498000,-1333.0000,0,,,
0.508000,1017.8750,0,,,
0.518000,-1333.0000,0,,,
0.528000,1018.1250,0,,,
0.538000,-1336.1250,0,,,
0.548000,1019.0000,0,,,
0.558000,-1334.0000,0,,,
0.568000,1018.3750,0,,,
0.578000,-1334.7500,0,,,
0.588000,1018.2500,0,,,
0.598000,-1335.3750,0,,,
0.608000,1018.1250,0,,,
0.618000,-1335.0000,0,,,
0.628000,1016.8750,0,,,
0.638000,-1335.8750,0,,,
0.648000,1018.3750,0,,,
0.658000,-1335.6250,0,,,
0.668000,1018.5000,0,,,
0.678000,-1336.0000,0,,,
0.688000,1018.7500,0,,,
0.698000,-1335.1250,0,,,
0.708000,1017.5000,0,,,
0.718000,-1334.2500,0,,,
0.728000,1018.7500,0,,,
0.738000,-1333.6250,0,,,
0.748000,1018.6250,0,,,
0.758000,-1333.8750,0,,,
0.768000,1018.8750,0,,,
0.778000,-1334.8750,0,,,
0.788000,1018.5000,0,,,
0.798000,-1335.0000,0,,,
0.808000,1018.2500,0,,,
0.818000,-1334.3750,0,,,
0.828000,1019.7500,0,,,
0.838000,-1335.3750,0,,,
0.848000,1017.3750,0,,,
0.858000,-1334.7500,0,,,
0.868000,1018.6250,0,,,
0.878000,-1333.6250,0,,,
0.888000,1017.5000,0,,,
0.898000,-1334.7500,0,,,
0.908000,1018.8750,0,,,
0.918000,-1335.2500,0,,,
0.928000,1021.1250,0,,,
0.938000,-1335.1250,0,,,
0.948000,1020.3750,0,,,
0.958000,-1334.0000,0,,,
0.968000,1019.3750,0,,,
0.978000,-1338.3750,0,,,
0.988000,1018.5000,0,,,
0.998000,-1334.2500,0,,,
1.008000,1019.2500,0,,,
1.018000,-1328.2500,0,,,
1.028000,809.8750,0,,,
1.038000,-1333.7500,0,,,
1.048000,999.0000,0,,,
1.058000,-1336.7500,0,,,
1.068000,1024.5000,0,,,
1.078000,-1072.3750,0,,,
1.088000,1013.3750,0,,,
1.098000,-1124.6250,0,,,
1.108000,1025.3750,0,,,
1.118000,-1127.3750,0,,,
1.128000,-53.8750,0,,,
1.138000,-1143.0000,0,,,
1.148000,-352.2500,0,,,
1.158000,-1150.8750,0,,,
1.168000,52.8750,0,,,
1.178000,-66.8750,0,,,
1.188000,317.2500,0,,,
1.198000,-143.2500,0,,,
1.208000,170.5000,0,,,
1.218000,-222.1250,0,,,
1.228000,314.1250,0,,,
1.238000,-277.5000,0,,,
1.248000,-1245.7500,0,,,
1.258000,-356.5000,0,,,
1.268000,-1213.7500,0,,,
1.278000,-415.8750,0,,,
1.288000,-1160.6250,0,,,
1.298000,923.5000,0,,,
1.308000,-1137.7500,0,,,
1.318000,930.1250,0,,,
1.328000,-1119.6250,0,,,
1.338000,882.5000,0,,,
1.348000,-1334.0000,0,,,
1.358000,811.0000,0,,,
1.368000,-1335.3750,0,,,
1.378000,803.3750,0,,,
1.388000,-1335.3750,0,,,
1.398000,1017.3750,0,,,
1.408000,-1335.7500,0,,,
1.418000,1018.8750,0,,,
1.428000,-1335.1250,0,,,
1.438000,1018.5000,0,,,
1.448000,-1334.1250,0,,,
1.458000,1019.1250,0,,,
1.468000,-1333.6250,0,,,
1.478000,1017.8750,0,,,
1.488000,-1335.2500,0,,,
1.498000,1019.5000,0,,,
1.508000,-1333.8750,0,,,
1.518000,1019.2500,0,,,
1.528000,-1336.2500,0,,,
1.538000,1017.0000,0,,,
1.548000,-1334.8750,0,,,
1.558000,1017.6250,0,,,
1.568000,-1334.2500,0,,,
1.578000,1015.1250,0,,,
1.588000,-1335.1250,0,,,
1.598000,1017.8750,0,,,
1.608000,-1333.7500,0,,,
1.618000,1016.5000,0,,,
1.628000,-1335.1250,0,,,
1.638000,1016.8750,0,,,
1.648000,-1335.5000,0,,,
1.658000,1017.3750,0,,,
1.668000,-1335.0000,0,,,
1.678000,1017.1250,0,,,
1.688000,-1335.0000,0,,,
1.698000,1017.3750,0,,,
1.708000,-1335.1250,0,,,
1.718000,1016.6250,0,,,
1.728000,-1334.2500,0,,,
1.738000,1019.5000,0,,,
1.748000,-1335.1250,0,,,
1.758000,1017.3750,0,,,
1.768000,-1335.2500,0,,,
1.778000,1017.7500,0,,,
1.788000,-1335.7500,0,,,
1.798000,1019.0000,0,,,
1.808000,-1334.8750,0,,,
1.818000,1016.2500,0,,,
1.828000,-1335.3750,0,,,
1.838000,1017.3750,0,,,
1.848000,-1334.8750,0,,,
1.858000,1016.8750,0,,,
1.868000,-1335.2500,0,,,
1.878000,1016.8750,0,,,
1.888000,-1334.8750,0,,,
1.898000,1017.5000,0,,,
1.908000,-1334.5000,0,,,
1.918000,1017.5000,0,,,
1.928000,-1335.0000,0,,,
1.938000,1018.5000,0,,,
1.948000,-1334.7500,0,,,
1.958000,1017.1250,0,,,
1.968000,-1334.6250,0,,,
1.978000,1017.1250,0,,,
1.988000,-1334.7500,0,,,
1.998000,1018.3750,0,,,
2.008000,-1334.0000,0,,,
2.018000,1018.5000,0,,,
2.028000,-1334.6250,0,,,
2.038000,1017.6250,0,,,
2.048000,-1333.8750,0,,,
2.058000,1017.7500,0,,,
2.068000,-1335.2500,0,,,
2.078000,1018.6250,0,,,
2.088000,-1335.8750,0,,,
2.098000,1018.6250,0,,,
2.108000,-1332.0000,0,,,
2.118000,1018.1250,0,,,
2.128000,-1330.2500,0,,,
2.138000,1021.0000,0,,,
2.148000,-1334.0000,0,,,
2.158000,1020.2500,0,,,
2.168000,-1336.3750,0,,,
2.178000,1023.6250,0,,,
2.188000,-1168.2500,0,,,
2.198000,1019.7500,0,,,
2.208000,-1156.1250,0,,,
2.218000,1020.3750,0,,,
2.228000,-1198.2500,0,,,
2.238000,1019.6250,0,,,
2.248000,-1194.1250,0,,,
2.258000,496.6250,0,,,
2.268000,-1194.8750,0,,,
2.278000,536.3750,0,,,
2.288000,-1247.3750,0,,,
2.298000,583.1250,0,,,
2.308000,-145.6250,0,,,
2.318000,773.2500,0,,,
2.328000,-115.2500,0,,,
2.338000,842.3750,0,,,
2.348000,-182.3750,0,,,
2.358000,-922.0000,0,,,
2.368000,-303.1250,0,,,
2.378000,-862.8750,0,,,
2.388000,-369.3750,0,,,
2.398000,-822.2500,0,,,
2.408000,961.0000,0,,,
2.418000,-798.8750,0,,,
2.428000,945.7500,0,,,
2.438000,-741.6250,0,,,
2.448000,922.0000,0,,,
2.458000,-1335.3750,0,,,
2.468000,875.3750,0,,,
2.478000,-1336.0000,0,,,
2.488000,800.0000,0,,,
2.498000,-1334.2500,0,,,
2.508000,761.3750,0,,,
2.518000,-1335.5000,0,,,
2.528000,1019.5000,0,,,
2.538000,-1335.1250,0,,,
2.548000,1018.6250,0,,,
2.558000,-1335.6250,0,,,
2.568000,1019.2500,0,,,
2.578000,-1335.0000,0,,,
2.588000,1018.2500,0,,,
2.598000,-1335.1250,0,,,
2.608000,1020.7500,0,,,
2.618000,-1335.2500,0,,,
2.628000,1016.8750,0,,,
2.638000,-1335.0000,0,,,
2.648000,1019.0000,0,,,
2.658000,-1335.0000,0,,,
2.668000,1017.7500,0,,,
2.678000,-1335.0000,0,,,
2.688000,1017.3750,0,,,
2.698000,-1335.1250,0,,,
2.708000,1018.2500,0,,,
2.718000,-1335.1250,0,,,
2.728000,1018.6250,0,,,
2.738000,-1335.7500,0,,,
2.748000,1016.8750,0,,,
2.758000,-1334.5000,0,,,
2.768000,1018.6250,0,,,
2.778000,-1336.8750,0,,,
2.788000,1016.2500,0,,,
2.798000,-1337.5000,0,,,
2.808000,1017.5000,0,,,
2.818000,-1337.3750,0,,,
2.828000,1016.8750,0,,,
2.838000,-1337.3750,0,,,
2.848000,1017.7500,0,,,
2.858000,-1336.7500,0,,,
2.868000,1018.1250,0,,,
2.878000,-1336.2500,0,,,
2.888000,1019.1250,0,,,
2.898000,-1336.8750,0,,,
2.908000,1016.8750,0,,,
2.918000,-1337.8750,0,,,
2.928000,1016.7500,0,,,
2.938000,-1336.7500,0,,,
2.948000,1018.0000,0,,,
2.958000,-1336.3750,0,,,
2.968000,1017.5000,0,,,
2.978000,-1338.3750,0,,,
2.988000,1017.5000,0,,,
2.998000,-1337.5000,0,,,
3.008000,1017.2500,0,,,
3.018000,-1338.2500,0,,,
3.028000,1017.5000,0,,,
3.038000,-1338.0000,0,,,
3.048000,1018.5000,0,,,
3.058000,-1337.2500,0,,,
3.068000,1018.5000,0,,,
3.078000,-1337.2500,0,,,
3.088000,1019.5000,0,,,
3.098000,-1336.8750,0,,,
3.108000,1017.0000,0,,,
3.118000,-1337.0000,0,,,
3.128000,1017.7500,0,,,
3.138000,-1336.5000,0,,,
3.148000,1018.1250,0,,,
3.158000,-1336.1250,0,,,
3.168000,1019.6250,0,,,
3.178000,-1337.7500,0,,,
3.188000,1018.5000,0,,,
3.198000,-1337.5000,0,,,
3.208000,1018.8750,0,,,
3.218000,-1337.2500,0,,,
3.228000,1018.8750,0,,,
3.238000,-1337.5000,0,,,
3.248000,1019.5000,0,,,
3.258000,-1338.0000,0,,,
3.268000,1018.0000,0,,,
3.278000,-1337.3750,0,,,
3.288000,1019.1250,0,,,
3.298000,-1335.1250,0,,,
3.308000,1018.6250,0,,,
3.318000,-1335.0000,0,,,
3.328000,1018.6250,0,,,
3.338000,-1153.6250,0,,,
3.348000,1020.3750,0,,,
3.358000,-1287.0000,0,,,
3.368000,1019.8750,0,,,
3.378000,-1148.6250,0,,,
3.388000,1024.3750,0,,,
3.398000,-1040.2500,0,,,
3.408000,1022.7500,0,,,
3.418000,-1094.3750,0,,,
3.428000,1022.6250,0,,,
3.438000,469.7500,0,,,
3.448000,1025.1250,0,,,
3.458000,282.8750,0,,,
3.468000,1016.3750,0,,,
3.478000,-88.5000,0,,,
3.488000,-872.8750,0,,,
3.498000,-256.1250,0,,,
3.508000,-677.1250,0,,,
3.518000,-258.5000,0,,,
3.528000,-386.8750,0,,,
3.538000,-191.6250,0,,,
3.548000,-85.6250,0,,,
3.558000,1026.5000,0,,,
3.568000,-35.7500,0,,,
3.578000,1017.2500,0,,,
3.588000,-81.7500,0,,,
3.598000,984.6250,0,,,
3.608000,-1337.6250,0,,,
3.618000,839.5000,0,,,
3.628000,-1315.2500,0,,,
3.638000,764.7500,0,,,
3.648000,-1310.8750,0,,,
3.658000,1020.3750,0,,,
3.668000,-1330.0000,0,,,
3.678000,1023.0000,0,,,
3.688000,-1332.8750,0,,,
3.698000,1025.0000,0,,,
3.708000,-1337.6250,0,,,
3.718000,1024.3750,0,,,
3.728000,-1337.8750,0,,,
3.738000,1014.7500,0,,,
3.748000,-1337.2500,0,,,
3.758000,982.6250,0,,,
3.768000,-1337.8750,0,,,
3.778000,1018.5000,0,,,
3.788000,-1335.7500,0,,,
3.798000,1020.0000,0,,,
3.808000,-1335.5000,0,,,
3.818000,1021.0000,0,,,
3.828000,-1337.5000,0,,,
3.838000,886.2500,0,,,
3.848000,-1338.0000,0,,,
3.858000,499.2500,0,,,
3.868000,-1337.5000,0,,,
3.878000,1019.1250,0,,,
3.888000,-1338.5000,0,,,
3.898000,1024.1250,0,,,
3.908000,-1338.5000,0,,,
3.918000,1008.1250,0,,,
3.928000,-1337.6250,0,,,
3.938000,1023.5000,0,,,
3.948000,-1337.3750,0,,,
3.958000,1024.5000,0,,,
3.968000,-1337.5000,0,,,
3.978000,1019.2500,0,,,
3.988000,-1073.7500,0,,,
3.998000,-1324.5000,0,,,
4.008000,708.0000,0,,,
4.018000,-1132.7500,0,,,
4.028000,-1337.6250,0,,,
4.038000,1018.1250,0,,,
4.048000,-1337.6250,0,,,
4.058000,1017.5000,0,,,
4.068000,-1338.0000,0,,,
4.078000,-1339.8750,0,,,
4.088000,1017.6250,0,,,
4.098000,1019.7500,0,,,
4.108000,1016.1250,0,,,
4.118000,-1343.2500,0,,,
4.128000,-1028.8750,0,,,
4.138000,-1335.3750,0,,,
4.148000,1025.2500,0,,,
4.158000,762.0000,0,,,
4.168000,-1321.3750,0,,,
4.178000,723.0000,0,,,
4.188000,-1339.1250,0,,,
4.198000,559.7500,0,,,
4.208000,-1337.5000,0,,,
4.218000,194.8750,0,,,
4.228000,-202.1250,0,,,
4.238000,-734.7500,0,,,
4.248000,1028.8750,0,,,
4.258000,-788.8750,0,,,
4.268000,1017.7500,0,,,
4.278000,1017.1250,0,,,
4.288000,-1331.3750,0,,,
4.298000,-1336.6250,0,,,
4.308000,663.6250,0,,,
4.318000,-1337.2500,0,,,
4.328000,-1337.0000,0,,,
4.338000,-1337.3750,0,,,
4.348000,1019.3750,0,,,
4.358000,-1337.8750,0,,,
4.368000,-1338.3750,0,,,
4.378000,678.3750,0,,,
4.388000,-1340.3750,0,,,
4.398000,908.7500,0,,,
4.408000,-452.1250,0,,,
4.418000,1019.2500,0,,,
4.428000,-1129.2500,0,,,
4.438000,1018.2500,0,,,
4.448000,-1182.8750,0,,,
4.458000,1018.7500,0,,,
4.468000,-1212.6250,0,,,
4.478000,842.0000,0,,,
4.488000,-1240.2500,0,,,
4.498000,857.3750,0,,,
4.508000,-1240.3750,0,,,
4.518000,846.5000,0,,,
4.528000,-497.6250,0,,,
4.538000,907.0000,0,,,
4.548000,-473.1250,0,,,
4.558000,-1338.2500,0,,,
4.568000,-1336.6250,0,,,
4.578000,1016.7500,0,,,
4.588000,-302.5000,0,,,
4.598000,-1337.0000,0,,,
4.608000,1016.2500,0,,,
4.618000,-1335.5000,0,,,
4.628000,-179.1250,0,,,
4.638000,-1336.7500,0,,,
4.648000,-1338.8750,0,,,
4.658000,-1339.3750,0,,,
4.668000,-1335.2500,0,,,
4.678000,-1338.8750,0,,,
4.688000,-1338.1250,0,,,
4.698000,1018.0000,0,,,
4.708000,1017.3750,0,,,
4.718000,323.6250,0,,,
4.728000,-1337.0000,0,,,
4.738000,115.8750,0,,,
4.748000,1019.0000,0,,,
4.758000,1019.8750,0,,,
4.768000,1019.3750,0,,,
4.778000,-1338.1250,0,,,
4.788000,-1337.0000,0,,,
4.798000,1020.8750,0,,,
4.808000,-1339.1250,0,,,
4.818000,1015.8750,0,,,
4.828000,1014.8750,0,,,
4.838000,1019.2500,0,,,
4.848000,1020.2500,0,,,
4.858000,-1337.0000,0,,,
4.868000,1017.7500,0,,,
4.878000,-1336.6250,0,,,
4.888000,1018.8750,0,,,
4.898000,1018.6250,0,,,
4.908000,859.8750,0,,,
4.918000,1019.5000,0,,,
4.928000,1019.3750,0,,,
4.938000,-1336.3750,0,,,
4.948000,950.7500,0,,,
4.958000,1017.3750,0,,,
4.968000,1019.7500,0,,,
4.978000,-1336.3750,0,,,
4.988000,-1192.7500,0,,,
4.998000,431.0000,0,,,
5.008000,-761.2500,0,,,
5.018000,620.7500,0,,,
5.028000,-163.3750,0,,,
5.038000,1019.8750,0,,,
5.048000,-1336.8750,0,,,
5.058000,1019.8750,0,,,
5.068000,1022.3750,0,,,
5.078000,197.8750,0,,,
5.088000,-1335.7500,0,,,
5.098000,-1335.7500,0,,,
5.108000,1019.3750,0,,,
5.118000,-326.2500,0,,,
5.128000,1020.6250,0,,,
5.138000,-1336.5000,0,,,
5.148000,296.7500,0,,,
5.158000,-1291.8750,0,,,
5.168000,-1337.5000,0,,,
5.178000,-1339.6250,0,,,
5.188000,1021.5000,0,,,
5.198000,1021.8750,0,,,
5.208000,1027.1250,0,,,
5.218000,1021.3750,0,,,
5.228000,1022.0000,0,,,
5.238000,1021.2500,0,,,
5.248000,-1337.1250,0,,,
5.258000,1021.0000,0,,,
5.268000,-1337.7500,0,,,
5.278000,1021.2500,0,,,
5.288000,1022.6250,0,,,
5.298000,1021.1250,0,,,
5.308000,-1338.1250,0,,,
5.318000,1021.2500,0,,,
5.328000,-1337.6250,0,,,
5.338000,1021.8750,0,,,
5.348000,733.0000,0,,,
5.358000,156.1250,0,,,
5.368000,1025.7500,0,,,
5.378000,833.8750,0,,,
5.388000,1024.5000,0,,,
5.398000,615.0000,0,,,
5.408000,1.5000,0,,,
5.418000,1020.8750,0,,,
5.428000,-1338.1250,0,,,
5.438000,1021.3750,0,,,
5.448000,-1337.1250,0,,,
5.458000,1022.0000,0,,,
5.468000,-1337.6250,0,,,
5.478000,1022.7500,0,,,
5.488000,-1336.3750,0,,,
5.498000,1022.2500,0,,,
5.508000,-1335.8750,0,,,
5.518000,1022.3750,0,,,
5.528000,-1337.7500,0,,,
5.538000,1022.6250,0,,,
5.548000,-1335.8750,0,,,
5.558000,1021.8750,0,,,
5.568000,-1337.5000,0,,,
5.578000,-1338.0000,0,,,
5.588000,-648.7500,0,,,
5.598000,-1262.1250,0,,,
5.608000,1021.7500,0,,,
5.618000,-1240.1250,0,,,
5.628000,1022.6250,0,,,
5.638000,-1337.5000,0,,,
5.648000,1022.8750,0,,,
5.658000,-1337.6250,0,,,
5.668000,1022.6250,0,,,
5.678000,-1338.5000,0,,,
5.688000,1022.3750,0,,,
5.698000,-1337.5000,0,,,
5.708000,1021.3750,0,,,
5.718000,-1338.1250,3,,-7.92,14.91
5.728000,1021.8750,3,,-7.92,14.91
5.738000,-1337.8750,3,,-7.92,14.91
5.748000,1022.2500,3,,-7.92,14.91
5.758000,-1337.8750,3,,-7.92,14.91
5.768000,1020.8750,3,,-7.92,14.91
5.778000,-1337.6250,3,,-7.92,14.91
5.788000,1020.6250,3,,-7.92,14.91
5.798000,1026.2500,3,,-7.92,14.91
5.808000,1024.1250,3,,-7.92,14.91
5.818000,1027.1250,3,,-7.92,14.91
5.828000,1025.1250,3,,-7.92,14.91
5.838000,-1151.6250,3,,-7.92,14.91
5.848000,1024.6250,3,,-7.92,14.91
5.858000,-1341.3750,3,,-7.92,14.91
5.868000,1030.7500,3,,-7.92,14.91
5.878000,-670.1250,3,,-7.92,14.91
5.888000,920.7500,3,,-7.92,14.91
5.898000,-945.7500,3,,-7.92,14.91
5.908000,1024.1250,3,,-7.92,14.91
5.918000,-1337.0000,3,,-7.92,14.91
5.928000,1024.5000,3,,-7.92,14.91
5.938000,-1338.7500,3,,-7.92,14.91
5.948000,1024.2500,3,,-7.92,14.91
5.958000,-1336.5000,3,,-7.92,14.91
5.968000,1025.2500,3,,-7.92,14.91
5.978000,-38.1250,3,,-7.92,14.91
5.988000,1025.6250,3,,-7.92,14.91
5.998000,-1330.5000,3,,-7.92,14.91
6.008000,1024.6250,3,,-7.92,14.91
6.018000,-1337.0000,3,,-7.92,14.91
6.028000,1026.2500,3,,-7.92,14.91
6.038000,-1336.7500,3,,-7.92,14.91
6.048000,1025.8750,3,,-7.92,14.91
6.058000,-1337.8750,3,,-7.92,14.91
6.068000,1025.8750,3,,-7.92,14.91
6.078000,-1336.5000,3,,-7.92,14.91
6.088000,1026.5000,3,,-7.92,14.91
6.098000,-1338.2500,3,,-7.92,14.91
6.108000,1025.1250,3,,-7.92,14.91
6.118000,-1336.5000,3,,-7.92,14.91
6.128000,1025.7500,3,,-7.92,14.91
6.138000,-1337.0000,3,,-7.92,14.91
6.148000,1025.5000,3,,-7.92,14.91
6.158000,-1338.3750,3,,-7.92,14.91
6.168000,1024.7500,3,,-7.92,14.91
6.178000,-1338.2500,3,,-7.92,14.91
6.188000,1025.3750,3,,-7.92,14.91
6.198000,-1337.5000,3,,-7.92,14.91
6.208000,1024.3750,3,,-7.92,14.91
6.218000,-1336.6250,3,,-7.92,14.91
6.228000,1024.2500,3,,-7.92,14.91
6.238000,-1337.1250,3,,-7.92,14.91
6.248000,1025.0000,3,,-7.92,14.91
6.258000,-1337.2500,3,,-7.92,14.91
6.268000,1025.0000,3,,-7.92,14.91
6.278000,-1337.1250,3,,-7.92,14.91
6.288000,1025.6250,3,,-7.92,14.91
6.298000,-1342.5000,3,,-7.92,14.91
6.308000,1024.3750,3,,-7.92,14.91
6.318000,-1337.3750,3,,-7.92,14.91
6.328000,1024.1250,3,,-7.92,14.91
6.338000,-1337.1250,3,,-7.92,14.91
6.348000,1024.3750,3,,-7.92,14.91
6.358000,-1337.3750,3,,-7.92,14.91
6.368000,1025.0000,3,,-7.92,14.91
6.378000,-1337.7500,3,,-7.92,14.91
6.388000,1023.7500,3,,-7.92,14.91
6.398000,-1274.3750,3,,-7.92,14.91
6.408000,1025.2500,3,,-7.92,14.91
6.418000,-1300.5000,3,,-7.92,14.91
6.428000,1023.6250,3,,-7.92,14.91
6.438000,-1314.0000,3,,-7.92,14.91
6.448000,1027.0000,3,,-7.92,14.91
6.458000,-1326.8750,3,,-7.92,14.91
6.468000,1028.5000,3,,-7.92,14.91
6.478000,-1334.6250,3,,-7.92,14.91
6.488000,1027.1250,3,,-7.92,14.91
6.498000,24.7500,3,,-7.92,14.91
6.508000,1024.6250,3,,-7.92,14.91
6.518000,-32.1250,3,,-7.92,14.91
6.528000,1026.1250,3,,-7.92,14.91
6.538000,-124.1250,3,,-7.92,14.91
6.548000,541.6250,3,,-7.92,14.91
6.558000,-205.8750,3,,-7.92,14.91
6.568000,594.1250,3,,-7.92,14.91
6.578000,-307.6250,3,,-7.92,14.91
6.588000,642.0000,3,,-7.92,14.91
6.598000,1028.6250,3,,-7.92,14.91
6.608000,665.6250,3,,-7.92,14.91
6.618000,1024.5000,3,,-7.92,14.91
6.628000,807.1250,3,,-7.92,14.91
6.638000,1012.2500,3,,-7.92,14.91
6.648000,881.0000,3,,-7.92,14.91
6.658000,997.5000,3,,-7.92,14.91
6.668000,-1009.6250,3,,-7.92,14.91
6.678000,973.5000,3,,-7.92,14.91
6.688000,-967.1250,3,,-7.92,14.91
6.698000,961.3750,3,,-7.92,14.91
6.708000,-864.5000,3,,-7.92,14.91
6.718000,1023.3750,3,,-7.92,14.91
6.728000,-746.1250,3,,-7.92,14.91
6.738000,1023.6250,3,,-7.92,14.91
6.748000,-679.8750,3,,-7.92,14.91
6.758000,1023.8750,3,,-7.92,14.91
6.768000,-1338.2500,3,,-7.92,14.91
6.778000,1023.3750,3,,-7.92,14.91
6.788000,-1336.7500,3,,-7.92,14.91
6.798000,1024.1250,3,,-7.92,14.91
6.808000,-1337.2500,3,,-7.92,14.91
6.818000,1023.0000,3,,-7.92,14.91
6.828000,-1339.0000,3,,-7.92,14.91
6.838000,1022.2500,3,,-7.92,14.91
6.848000,-1337.7500,3,,-7.92,14.91
6.858000,1023.3750,3,,-7.92,14.91
6.868000,-1336.2500,3,,-7.92,14.91
6.878000,1023.6250,3,,-7.92,14.91
6.888000,-1335.8750,3,,-7.92,14.91
6.898000,1024.0000,3,,-7.92,14.91
6.908000,-1337.0000,3,,-7.92,14.91
6.918000,1023.2500,3,,-7.92,14.91
6.928000,-1337.6250,3,,-7.92,14.91
6.938000,1023.1250,3,,-7.92,14.91
6.948000,-1337.2500,3,,-7.92,14.91
6.958000,1023.3750,3,,-7.92,14.91
6.968000,-1336.6250,3,,-7.92,14.91
6.978000,1023.1250,3,,-7.92,14.91
6.988000,-1336.0000,3,,-7.92,14.91
6.998000,1023.7500,3,,-7.92,14.91
7.008000,-1336.6250,3,,-7.92,14.91
7.018000,1023.3750,3,,-7.92,14.91
7.028000,-1335.8750,3,,-7.92,14.91
7.038000,1022.6250,3,,-7.92,14.91
7.048000,-1338.1250,3,,-7.92,14.91
7.058000,1023.0000,3,,-7.92,14.91
7.068000,-1337.2500,3,,-7.92,14.91
7.078000,1022.8750,3,,-7.92,14.91
7.088000,-1337.0000,3,,-7.92,14.91
7.098000,1022.6250,3,,-7.92,14.91
7.108000,-1337.0000,3,,-7.92,14.91
7.118000,1023.1250,3,,-7.92,14.91
7.128000,-1336.6250,3,,-7.92,14.91
7.138000,1022.6250,3,,-7.92,14.91
7.148000,-1336.7500,3,,-7.92,14.91
7.158000,1023.7500,3,,-7.92,14.91
7.168000,-1338.1250,3,,-7.92,14.91
7.178000,1024.0000,3,,-7.92,14.91
7.188000,-1336.7500,3,,-7.92,14.91
7.198000,1022.2500,3,,-7.92,14.91
7.208000,-1335.2500,3,,-7.92,14.91
7.218000,1023.5000,3,,-7.92,14.91
7.228000,-1335.6250,3,,-7.92,14.91
7.238000,1022.6250,3,,-7.92,14.91
7.248000,-1335.7500,3,,-7.92,14.91
7.258000,1022.8750,3,,-7.92,14.91
7.268000,-1337.8750,3,,-7.92,14.91
7.278000,1023.7500,3,,-7.92,14.91
7.288000,-1338.1250,3,,-7.92,14.91
7.298000,1023.3750,3,,-7.92,14.91
7.308000,-1338.0000,3,,-7.92,14.91
7.318000,1023.1250,3,,-7.92,14.91
7.328000,-1337.5000,3,,-7.92,14.91
7.338000,1023.2500,3,,-7.92,14.91
7.348000,-1335.6250,3,,-7.92,14.91
7.358000,1024.0000,3,,-7.92,14.91
7.368000,-1337.0000,3,,-7.92,14.91
7.378000,1023.5000,3,,-7.92,14.91
7.388000,-1337.3750,3,,-7.92,14.91
7.398000,1023.5000,3,,-7.92,14.91
7.408000,-1336.8750,3,,-7.92,14.91
7.418000,1022.8750,3,,-7.92,14.91
7.428000,-1336.7500,3,,-7.92,14.91
7.438000,1023.7500,3,,-7.92,14.91
7.448000,-1337.2500,3,,-7.92,14.91
7.458000,1024.2500,3,,-7.92,14.91
7.468000,-1337.0000,3,,-7.92,14.91
7.478000,1024.7500,3,,-7.92,14.91
7.488000,-1337.7500,3,,-7.92,14.91
7.498000,1024.3750,3,,-7.92,14.91
7.508000,-1337.7500,3,,-7.92,14.91
7.518000,1023.8750,3,,-7.92,14.91
7.528000,-1338.2500,3,,-7.92,14.91
7.538000,1024.1250,3,,-7.92,14.91
7.548000,1023.2500,3,,-7.92,14.91
7.558000,1025.5000,3,,-7.92,14.91
7.568000,-571.5000,3,,-7.92,14.91
7.578000,951.0000,3,,-7.92,14.91
7.588000,1022.7500,3,,-7.92,14.91
7.598000,-1337.6250,3,,-7.92,14.91
7.608000,1024.8750,3,,-7.92,14.91
7.618000,-1338.6250,3,,-7.92,14.91
7.628000,1023.7500,3,,-7.92,14.91
7.638000,1024.8750,3,,-7.92,14.91
7.648000,-85.7500,3,,-7.92,14.91
7.658000,-204.2500,3,,-7.92,14.91
7.668000,-290.7500,3,,-7.92,14.91
7.678000,1024.1250,3,,-7.92,14.91
7.688000,1023.6250,3,,-7.92,14.91
7.698000,1022.0000,3,,-7.92,14.91
7.708000,-1337.5000,3,,-7.92,14.91
7.718000,1022.6250,3,,-7.92,14.91
7.728000,-1336.7500,3,,-7.92,14.91
7.738000,1022.6250,3,,-7.92,14.91
7.748000,-1338.2500,3,,-7.92,14.91
7.758000,1023.1250,3,,-7.92,14.91
7.768000,-1336.8750,3,,-7.92,14.91
7.778000,-1337.8750,3,,-7.92,14.91
7.788000,-1336.3750,3,,-7.92,14.91
7.798000,1024.8750,3,,-7.92,14.91
7.808000,-619.0000,3,,-7.92,14.91
7.818000,-1335.7500,3,,-7.92,14.91
7.828000,-1338.3750,3,,-7.92,14.91
7.838000,-1336.5000,3,,-7.92,14.91
7.848000,-1337.0000,3,,-7.92,14.91
7.858000,1022.2500,3,,-7.92,14.91
7.868000,1022.1250,3,,-7.92,14.91
7.878000,-1337.2500,3,,-7.92,14.91
7.888000,1022.6250,3,,-7.92,14.91
7.898000,-1336.3750,3,,-7.92,14.91
7.908000,1021.2500,3,,-7.92,14.91
7.918000,1022.1250,3,,-7.92,14.91
7.928000,1022.5000,3,,-7.92,14.91
7.938000,-1324.1250,3,,-7.92,14.91
7.948000,1022.6250,3,,-7.92,14.91
7.958000,-1324.5000,3,,-7.92,14.91
7.968000,1023.1250,3,,-7.92,14.91
7.978000,-1338.6250,3,,-7.92,14.91
7.988000,1027.0000,3,,-7.92,14.91
7.998000,-1334.2500,3,,-7.92,14.91
8.008000,1026.6250,3,,-7.92,14.91
8.018000,-1338.1250,3,,-7.92,14.91
8.028000,1025.0000,3,,-7.92,14.91
8.038000,-1338.3750,3,,-7.92,14.91
8.048000,1025.3750,3,,-7.92,14.91
8.058000,-729.8750,3,,-7.92,14.91
8.068000,1025.0000,3,,-7.92,14.91
8.078000,-825.8750,3,,-7.92,14.91
8.088000,349.0000,3,,-7.92,14.91
8.098000,-888.6250,3,,-7.92,14.91
8.108000,451.8750,3,,-7.92,14.91
8.118000,-965.8750,3,,-7.92,14.91
8.128000,-1202.0000,3,,-7.92,14.91
8.138000,1021.1250,3,,-7.92,14.91
8.148000,1021.5000,3,,-7.92,14.91
8.158000,-1287.5000,3,,-7.92,14.91
8.168000,1021.7500,3,,-7.92,14.91
8.178000,1021.5000,3,,-7.92,14.91
8.188000,1026.1250,3,,-7.92,14.91
8.198000,-1337.6250,3,,-7.92,14.91
8.208000,1021.3750,3,,-7.92,14.91
8.218000,-1337.3750,3,,-7.92,14.91
8.228000,1023.8750,3,,-7.92,14.91
8.238000,-797.1250,3,,-7.92,14.91
8.248000,-1336.1250,3,,-7.92,14.91
8.258000,1025.8750,3,,-7.92,14.91
8.268000,950.1250,3,,-7.92,14.91
8.278000,-1026.1250,3,,-7.92,14.91
8.288000,684.7500,3,,-7.92,14.91
8.298000,1022.2500,3,,-7.92,14.91
8.308000,-1322.3750,3,,-7.92,14.91
8.318000,108.3750,3,,-7.92,14.91
8.328000,1022.8750,3,,-7.92,14.91
8.338000,1021.5000,3,,-7.92,14.91
8.348000,-224.0000,3,,-7.92,14.91
8.358000,1028.6250,3,,-7.92,14.91
8.368000,-447.7500,3,,-7.92,14.91
8.378000,-1028.6250,3,,-7.92,14.91
8.388000,1023.2500,3,,-7.92,14.91
8.398000,-902.7500,3,,-7.92,14.91
8.408000,-1336.8750,3,,-7.92,14.91
8.418000,-1258.8750,3,,-7.92,14.91
8.428000,1025.3750,3,,-7.92,14.91
8.438000,1023.5000,3,,-7.92,14.91
8.448000,-1324.7500,3,,-7.92,14.91
8.458000,1023.7500,3,,-7.92,14.91
8.468000,1023.2500,3,,-7.92,14.91
8.478000,1023.2500,3,,-7.92,14.91
8.488000,-1337.2500,3,,-7.92,14.91
8.498000,1022.5000,3,,-7.92,14.91
8.508000,-1336.0000,3,,-7.92,14.91
8.518000,1023.1250,3,,-7.92,14.91
8.528000,637.2500,3,,-7.92,14.91
8.538000,1025.1250,3,,-7.92,14.91
8.548000,-1338.5000,3,,-7.92,14.91
8.558000,1031.3750,3,,-7.92,14.91
8.568000,-462.0000,3,,-7.92,14.91
8.578000,629.0000,3,,-7.92,14.91
8.588000,1031.0000,3,,-7.92,14.91
8.598000,1033.1250,3,,-7.92,14.91
8.608000,1033.1250,3,,-7.92,14.91
8.618000,-1334.2500,3,,-7.92,14.91
8.628000,1028.7500,3,,-7.92,14.91
8.638000,-390.1250,3,,-7.92,14.91
8.648000,1030.5000,3,,-7.92,14.91
8.658000,1030.0000,3,,-7.92,14.91
8.668000,-1337.5000,3,,-7.92,14.91
8.678000,1027.2500,3,,-7.92,14.91
8.688000,1029.8750,3,,-7.92,14.91
8.698000,1027.0000,3,,-7.92,14.91
8.708000,1025.2500,3,,-7.92,14.91
8.718000,-1337.2500,3,,-7.92,14.91
8.728000,1026.1250,3,,-7.92,14.91
8.738000,-1337.6250,3,,-7.92,14.91
8.748000,-1336.3750,3,,-7.92,14.91
8.758000,-1337.3750,3,,-7.92,14.91
8.768000,1027.3750,3,,-7.92,14.91
8.778000,-1337.7500,3,,-7.92,14.91
8.788000,-1336.6250,3,,-7.92,14.91
8.798000,-1312.0000,3,,-7.92,14.91
8.808000,1028.2500,3,,-7.92,14.91
8.818000,1029.3750,3,,-7.92,14.91
8.828000,1027.1250,3,,-7.92,14.91
8.838000,-1336.6250,3,,-7.92,14.91
8.848000,1026.6250,3,,-7.92,14.91
8.858000,-1337.1250,3,,-7.92,14.91
8.868000,-1337.2500,3,,-7.92,14.91
8.878000,1025.7500,3,,-7.92,14.91
8.888000,1025.3750,3,,-7.92,14.91
8.898000,1030.8750,3,,-7.92,14.91
8.908000,1026.0000,3,,-7.92,14.91
8.918000,1024.8750,3,,-7.92,14.91
8.928000,-1335.8750,3,,-7.92,14.91
8.938000,-1338.8750,3,,-7.92,14.91
8.948000,1025.7500,3,,-7.92,14.91
8.958000,-1337.8750,3,,-7.92,14.91
8.968000,1028.3750,3,,-7.92,14.91
8.978000,1024.8750,3,,-7.92,14.91
8.988000,1026.6250,3,,-7.92,14.91
8.998000,1025.7500,3,,-7.92,14.91
9.008000,1025.1250,3,,-7.92,14.91
9.018000,-1337.1250,3,,-7.92,14.91
9.028000,-1337.1250,3,,-7.92,14.91
9.038000,-1337.8750,3,,-7.92,14.91
9.048000,1025.1250,3,,-7.92,14.91
9.058000,-1338.5000,3,,-7.92,14.91
9.068000,990.5000,3,,-7.92,14.91
9.078000,1025.0000,3,,-7.92,14.91
9.088000,-1335.3750,3,,-7.92,14.91
9.098000,-1330.0000,3,,-7.92,14.91
9.108000,1024.8750,3,,-7.92,14.91
9.118000,1030.5000,3,,-7.92,14.91
9.128000,1033.5000,3,,-7.92,14.91
9.138000,1033.2500,3,,-7.92,14.91
9.148000,1034.8750,3,,-7.92,14.91
9.158000,1036.2500,3,,-7.92,14.91
9.168000,1038.8750,3,,-7.92,14.91
9.178000,1039.1250,3,,-7.92,14.91
9.188000,1039.3750,3,,-7.92,14.91
9.198000,1040.3750,3,,-7.92,14.91
9.208000,985.2500,3,,-7.92,14.91
9.218000,913.3750,3,,-7.92,14.91
9.228000,919.7500,3,,-7.92,14.91
9.238000,902.6250,3,,-7.92,14.91
9.248000,883.0000,3,,-7.92,14.91
9.258000,863.8750,3,,-7.92,14.91
9.268000,845.6250,3,,-7.92,14.91
9.278000,828.0000,3,,-7.92,14.91
9.288000,783.0000,3,,-7.92,14.91
9.298000,768.1250,3,,-7.92,14.91
9.308000,751.2500,3,,-7.92,14.91
9.318000,732.3750,3,,-7.92,14.91
9.328000,717.3750,3,,-7.92,14.91
9.338000,701.8750,3,,-7.92,14.91
9.348000,685.2500,3,,-7.92,14.91
9.358000,661.7500,3,,-7.92,14.91
9.368000,647.1250,3,,-7.92,14.91
9.378000,629.2500,3,,-7.92,14.91
9.388000,612.7500,3,,-7.92,14.91
9.398000,599.6250,3,,-7.92,14.91
9.408000,588.3750,3,,-7.92,14.91
9.418000,572.7500,3,,-7.92,14.91
9.428000,559.3750,3,,-7.92,14.91
9.438000,542.7500,3,,-7.92,14.91
9.448000,528.5000,3,,-7.92,14.91
9.458000,512.8750,3,,-7.92,14.91
9.468000,501.1250,3,,-7.92,14.91
9.478000,486.1250,3,,-7.92,14.91
9.488000,473.0000,3,,-7.92,14.91
9.498000,459.2500,3,,-7.92,14.91
9.508000,446.8750,3,,-7.92,14.91
9.518000,433.3750,3,,-7.92,14.91
9.528000,422.1250,3,,-7.92,14.91
9.538000,408.6250,3,,-7.92,14.91
9.548000,397.2500,3,,-7.92,14.91
9.558000,384.6250,3,,-7.92,14.91
9.568000,371.7500,3,,-7.92,14.91
9.578000,360.5000,3,,-7.92,14.91
9.588000,325.7500,3,,-7.92,14.91
9.598000,316.1250,3,,-7.92,14.91
9.608000,271.2500,3,,-7.92,14.91
9.618000,287.6250,3,,-7.92,14.91
9.628000,271.1250,3,,-7.92,14.91
9.638000,263.6250,3,,-7.92,14.91
9.648000,250.1250,3,,-7.92,14.91
9.658000,242.0000,3,,-7.92,14.91
9.668000,229.8750,3,,-7.92,14.91
9.678000,219.5000,3,,-7.92,14.91
9.688000,210.7500,3,,-7.92,14.91
9.698000,200.1250,3,,-7.92,14.91
9.708000,189.8750,3,,-7.92,14.91
9.718000,180.2500,3,,-7.92,14.91
9.728000,171.0000,3,,-7.92,14.91
9.738000,129.7500,3,,-7.92,14.91
9.748000,156.1250,3,,-7.92,14.91
9.758000,52.5000,3,,-7.92,14.91
9.768000,143.5000,3,,-7.92,14.91
9.778000,127.6250,3,,-7.92,14.91
9.788000,-595.6250,5,71.43,-9.41,5.68
9.798000,153.6250,5,71.43,-9.41,5.68
9.808000,-1068.6250,5,71.43,-9.41,5.68
9.818000,192.7500,5,71.43,-9.41,5.68
9.828000,-1337.5000,5,71.43,-9.41,5.68
9.838000,233.5000,5,71.43,-9.41,5.68
9.848000,-1338.8750,5,71.43,-9.41,5.68
9.858000,271.7500,5,71.43,-9.41,5.68
9.868000,-1339.0000,5,71.43,-9.41,5.68
9.878000,356.0000,5,71.43,-9.41,5.68
9.888000,-1339.0000,5,71.43,-9.41,5.68
9.898000,396.3750,5,71.43,-9.41,5.68
9.908000,-1338.2500,5,71.43,-9.41,5.68
9.918000,434.8750,5,71.43,-9.41,5.68
9.928000,-1337.1250,5,71.43,-9.41,5.68
9.938000,472.1250,5,71.43,-9.41,5.68
9.948000,-1339.2500,5,71.43,-9.41,5.68
9.958000,511.2500,5,71.43,-9.41,5.68
9.968000,-1339.0000,5,71.43,-9.41,5.68
9.978000,543.3750,5,71.43,-9.41,5.68
9.988000,-1338.3750,5,71.43,-9.41,5.68
9.998000,584.2500,5,71.43,-9.41,5.68
10.008000,-1338.0000,5,71.43,-9.41,5.68
10.018000,619.6250,5,71.43,-9.41,5.68
10.028000,-1338.0000,5,71.43,-9.41,5.68
10.038000,651.0000,5,71.43,-9.41,5.68
10.048000,-1336.8750,5,71.43,-9.41,5.68
10.058000,680.7500,5,71.43,-9.41,5.68
10.068000,-1337.7500,5,71.43,-9.41,5.68
10.078000,709.1250,5,71.43,-9.41,5.68
10.088000,-1338.3750,5,71.43,-9.41,5.68
10.098000,738.6250,5,71.43,-9.41,5.68
10.108000,-1337.3750,5,71.43,-9.41,5.68
10.118000,765.5000,5,71.43,-9.41,5.68
10.128000,-1337.7500,5,71.43,-9.41,5.68
10.138000,793.5000,5,71.43,-9.41,5.68
10.148000,-1336.3750,5,71.43,-9.41,5.68
10.158000,820.3750,5,71.43,-9.41,5.68
10.168000,-1337.1250,5,71.43,-9.41,5.68
10.178000,852.3750,5,71.43,-9.41,5.68
10.188000,-1337.3750,5,71.43,-9.41,5.68
10.198000,891.2500,5,71.43,-9.41,5.68
10.208000,-1336.8750,5,71.43,-9.41,5.68
10.218000,922.7500,5,71.43,-9.41,5.68
10.228000,-1337.6250,5,71.43,-9.41,5.68
10.238000,950.1250,5,71.43,-9.41,5.68
10.248000,-1338.8750,5,71.43,-9.41,5.68
10.258000,977.0000,5,71.43,-9.41,5.68
10.268000,-1337.8750,5,71.43,-9.41,5.68
10.278000,998.1250,5,71.43,-9.41,5.68
10.288000,-1338.0000,5,71.43,-9.41,5.68
10.298000,1015.2500,5,71.43,-9.41,5.68
10.308000,-1336.8750,5,71.43,-9.41,5.68
10.318000,1032.6250,5,71.43,-9.41,5.68
10.328000,-1338.1250,5,71.43,-9.41,5.68
10.338000,1039.7500,5,71.43,-9.41,5.68
10.348000,-1337.7500,5,71.43,-9.41,5.68
10.358000,1039.1250,5,71.43,-9.41,5.68
10.368000,-1337.2500,5,71.43,-9.41,5.68
10.378000,1038.3750,5,71.43,-9.41,5.68
10.388000,-1337.3750,5,71.43,-9.41,5.68
10.398000,1037.8750,5,71.43,-9.41,5.68
10.408000,-1337.0000,5,71.43,-9.41,5.68
10.418000,1037.6250,5,71.43,-9.41,5.68
10.428000,-1338.2500,5,71.43,-9.41,5.68
10.438000,1036.8750,5,71.43,-9.41,5.68
10.448000,-1338.2500,5,71.43,-9.41,5.68
10.458000,1036.5000,5,71.43,-9.41,5.68
10.468000,-1336.2500,5,71.43,-9.41,5.68
10.478000,1036.7500,5,71.43,-9.41,5.68
10.488000,-1338.3750,5,71.43,-9.41,5.68
10.498000,1035.8750,5,71.43,-9.41,5.68
10.508000,-1338.2500,5,71.43,-9.41,5.68
10.518000,1036.2500,5,71.43,-9.41,5.68
10.528000,-1337.2500,5,71.43,-9.41,5.68
10.538000,1035.8750,5,71.43,-9.41,5.68
10.548000,-1337.1250,5,71.43,-9.41,5.68
10.558000,1035.3750,5,71.43,-9.41,5.68
10.568000,-1338.7500,5,71.43,-9.41,5.68
10.578000,1035.7500,5,71.43,-9.41,5.68
10.588000,-1341.0000,5,71.43,-9.41,5.68
10.598000,1034.2500,5,71.43,-9.41,5.68
10.608000,-1335.5000,5,71.43,-9.41,5.68
10.618000,1035.2500,5,71.43,-9.41,5.68
10.628000,-1337.5000,5,71.43,-9.41,5.68
10.638000,1035.2500,5,71.43,-9.41,5.68
10.648000,-1337.0000,5,71.43,-9.41,5.68
10.658000,1035.2500,5,71.43,-9.41,5.68
10.668000,-1231.6250,5,71.43,-9.41,5.68
10.678000,1034.3750,5,71.43,-9.41,5.68
10.688000,-1287.7500,5,71.43,-9.41,5.68
10.698000,1034.8750,5,71.43,-9.41,5.68
10.708000,-1288.5000,5,71.43,-9.41,5.68
10.718000,1036.2500,5,71.43,-9.41,5.68
10.728000,-1311.0000,5,71.43,-9.41,5.68
10.738000,1035.8750,5,71.43,-9.41,5.68
10.748000,-1330.1250,5,71.43,-9.41,5.68
10.758000,1035.1250,5,71.43,-9.41,5.68
10.768000,-1339.2500,5,71.43,-9.41,5.68
10.778000,1035.5000,5,71.43,-9.41,5.68
10.788000,-552.0000,5,71.43,-9.41,5.68
10.798000,1034.2500,5,71.43,-9.41,5.68
10.808000,-543.5000,5,71.43,-9.41,5.68
10.818000,1034.6250,5,71.43,-9.41,5.68
10.828000,-685.0000,5,71.43,-9.41,5.68
10.838000,997.3750,5,71.43,-9.41,5.68
10.848000,-739.2500,5,71.43,-9.41,5.68
10.858000,997.5000,5,71.43,-9.41,5.68
10.868000,-840.8750,5,71.43,-9.41,5.68
10.878000,1014.3750,5,71.43,-9.41,5.68
10.888000,496.0000,5,71.43,-9.41,5.68
10.898000,1030.3750,5,71.43,-9.41,5.68
10.908000,445.0000,5,71.43,-9.41,5.68
10.918000,1031.6250,5,71.43,-9.41,5.68
10.928000,211.0000,5,71.43,-9.41,5.68
10.938000,94.1250,5,71.43,-9.41,5.68
10.948000,171.0000,5,71.43,-9.41,5.68
10.958000,279.6250,5,71.43,-9.41,5.68
10.968000,139.6250,5,71.43,-9.41,5.68
10.978000,455.1250,5,71.43,-9.41,5.68
10.988000,1021.3750,5,71.43,-9.41,5.68
10.998000,563.5000,5,71.43,-9.41,5.68
11.008000,995.8750,5,71.43,-9.41,5.68
11.018000,608.0000,5,71.43,-9.41,5.68
11.028000,968.1250,5,71.43,-9.41,5.68
11.038000,-821.2500,5,71.43,-9.41,5.68
11.048000,900.3750,5,71.43,-9.41,5.68
11.058000,-780.1250,5,71.43,-9.41,5.68
11.068000,874.3750,5,71.43,-9.41,5.68
11.078000,-847.3750,5,71.43,-9.41,5.68
11.088000,1031.1250,5,71.43,-9.41,5.68
11.098000,-776.6250,5,71.43,-9.41,5.68
11.108000,1031.2500,5,71.43,-9.41,5.68
11.118000,-745.8750,5,71.43,-9.41,5.68
11.128000,1029.6250,5,71.43,-9.41,5.68
11.138000,-1333.8750,5,71.43,-9.41,5.68
11.148000,1031.2500,5,71.43,-9.41,5.68
11.158000,-1336.8750,5,71.43,-9.41,5.68
11.168000,1030.1250,5,71.43,-9.41,5.68
11.178000,-1329.7500,5,71.43,-9.41,5.68
11.188000,1029.5000,5,71.43,-9.41,5.68
11.198000,-1322.6250,5,71.43,-9.41,5.68
11.208000,1030.5000,5,71.43,-9.41,5.68
11.218000,-1320.3750,5,71.43,-9.41,5.68
11.228000,1030.5000,5,71.43,-9.41,5.68
11.238000,-1312.1250,5,71.43,-9.41,5.68
11.248000,1029.0000,5,71.43,-9.41,5.68
11.258000,-1338.3750,5,71.43,-9.41,5.68
11.268000,1030.2500,5,71.43,-9.41,5.68
11.278000,-1337.8750,5,71.43,-9.41,5.68
11.288000,1030.0000,5,71.43,-9.41,5.68
11.298000,-1337.1250,5,71.43,-9.41,5.68
11.308000,1029.5000,5,71.43,-9.41,5.68
11.318000,-1338.0000,5,71.43,-9.41,5.68
11.328000,1029.8750,5,71.43,-9.41,5.68
11.338000,-1336.5000,5,71.43,-9.41,5.68
11.348000,1028.7500,5,71.43,-9.41,5.68
11.358000,-1337.3750,5,71.43,-9.41,5.68
11.368000,1029.3750,5,71.43,-9.41,5.68
11.378000,-1336.7500,5,71.43,-9.41,5.68
11.388000,1029.2500,5,71.43,-9.41,5.68
11.398000,-1338.7500,5,71.43,-9.41,5.68
11.408000,1028.6250,5,71.43,-9.41,5.68
11.418000,-1338.0000,5,71.43,-9.41,5.68
11.428000,1029.0000,5,71.43,-9.41,5.68
11.438000,-1338.3750,5,71.43,-9.41,5.68
11.448000,1028.2500,5,71.43,-9.41,5.68
11.458000,-1336.8750,5,71.43,-9.41,5.68
11.468000,1028.1250,5,71.43,-9.41,5.68
11.478000,-1338.1250,5,71.43,-9.41,5.68
11.488000,1028.2500,5,71.43,-9.41,5.68
11.498000,-1337.3750,5,71.43,-9.41,5.68
11.508000,1028.2500,5,71.43,-9.41,5.68
11.518000,-1338.5000,5,71.43,-9.41,5.68
11.528000,1028.6250,5,71.43,-9.41,5.68
11.538000,-1337.8750,5,71.43,-9.41,5.68
11.548000,1030.1250,5,71.43,-9.41,5.68
11.558000,1028.3750,5,71.43,-9.41,5.68
11.568000,1026.0000,5,71.43,-9.41,5.68
11.578000,1024.8750,5,71.43,-9.41,5.68
11.588000,1026.7500,5,71.43,-9.41,5.68
11.598000,-1337.6250,5,71.43,-9.41,5.68
11.608000,1025.3750,5,71.43,-9.41,5.68
11.618000,-1336.5000,5,71.43,-9.41,5.68
11.628000,-845.1250,5,71.43,-9.41,5.68
11.638000,1025.0000,5,71.43,-9.41,5.68
11.648000,-1337.6250,5,71.43,-9.41,5.68
11.658000,1023.7500,5,71.43,-9.41,5.68
11.668000,-1336.7500,5,71.43,-9.41,5.68
11.678000,1023.8750,5,71.43,-9.41,5.68
11.688000,1024.5000,5,71.43,-9.41,5.68
11.698000,1023.5000,5,71.43,-9.41,5.68
11.708000,-1326.1250,5,71.43,-9.41,5.68
11.718000,1023.8750,5,71.43,-9.41,5.68
11.728000,-1280.1250,5,71.43,-9.41,5.68
11.738000,1023.8750,5,71.43,-9.41,5.68
11.748000,-1337.7500,5,71.43,-9.41,5.68
11.758000,1023.6250,5,71.43,-9.41,5.68
11.768000,-1337.6250,5,71.43,-9.41,5.68
11.778000,1028.1250,5,71.43,-9.41,5.68
11.788000,1023.8750,5,71.43,-9.41,5.68
11.798000,-772.3750,5,71.43,-9.41,5.68
11.808000,1023.1250,5,71.43,-9.41,5.68
11.818000,1023.2500,5,71.43,-9.41,5.68
11.828000,-1336.3750,5,71.43,-9.41,5.68
11.838000,811.0000,5,71.43,-9.41,5.68
11.848000,1023.6250,5,71.43,-9.41,5.68
11.858000,1025.2500,5,71.43,-9.41,5.68
11.868000,1024.3750,5,71.43,-9.41,5.68
11.878000,1023.6250,5,71.43,-9.41,5.68
11.888000,1024.8750,5,71.43,-9.41,5.68
11.898000,999.6250,5,71.43,-9.41,5.68
11.908000,-1069.0000,5,71.43,-9.41,5.68
11.918000,1024.0000,5,71.43,-9.41,5.68
11.928000,-1116.5000,5,71.43,-9.41,5.68
11.938000,1025.1250,5,71.43,-9.41,5.68
11.948000,-1167.6250,5,71.43,-9.41,5.68
11.958000,1027.8750,5,71.43,-9.41,5.68
11.968000,-1209.3750,5,71.43,-9.41,5.68
11.978000,1028.3750,5,71.43,-9.41,5.68
11.988000,306.8750,5,71.43,-9.41,5.68
11.998000,1029.0000,5,71.43,-9.41,5.68
12.008000,206.3750,5,71.43,-9.41,5.68
12.018000,1028.1250,5,71.43,-9.41,5.68
12.028000,113.2500,5,71.43,-9.41,5.68
12.038000,-175.6250,5,71.43,-9.41,5.68
12.048000,27.5000,5,71.43,-9.41,5.68
12.058000,0.5000,5,71.43,-9.41,5.68
12.068000,1027.5000,5,71.43,-9.41,5.68
12.078000,-1294.5000,5,71.43,-9.41,5.68
12.088000,-1336.0000,5,71.43,-9.41,5.68
12.098000,-1335.7500,5,71.43,-9.41,5.68
12.108000,-1340.1250,5,71.43,-9.41,5.68
12.118000,903.7500,5,71.43,-9.41,5.68
12.128000,1026.5000,5,71.43,-9.41,5.68
12.138000,1022.3750,5,71.43,-9.41,5.68
12.148000,-1336.8750,5,71.43,-9.41,5.68
12.158000,-1337.0000,5,71.43,-9.41,5.68
12.168000,-1336.8750,5,71.43,-9.41,5.68
12.178000,-1336.8750,5,71.43,-9.41,5.68
12.188000,-1337.3750,5,71.43,-9.41,5.68
12.198000,-1303.0000,5,71.43,-9.41,5.68
12.208000,-192.6250,5,71.43,-9.41,5.68
12.218000,1030.3750,5,71.43,-9.41,5.68
12.228000,-25.5000,5,71.43,-9.41,5.68
12.238000,-1273.7500,5,71.43,-9.41,5.68
12.248000,1023.5000,5,71.43,-9.41,5.68
12.258000,-1337.2500,5,71.43,-9.41,5.68
12.268000,1022.5000,5,71.43,-9.41,5.68
12.278000,-1337.0000,5,71.43,-9.41,5.68
12.288000,1021.6250,5,71.43,-9.41,5.68
12.298000,-1216.2500,5,71.43,-9.41,5.68
12.308000,613.8750,5,71.43,-9.41,5.68
12.318000,1023.7500,5,71.43,-9.41,5.68
12.328000,1021.5000,5,71.43,-9.41,5.68
12.338000,1021.7500,5,71.43,-9.41,5.68
12.348000,-1337.3750,5,71.43,-9.41,5.68
12.358000,1021.1250,5,71.43,-9.41,5.68
12.368000,-1336.0000,5,71.43,-9.41,5.68
12.378000,1022.0000,5,71.43,-9.41,5.68
12.388000,1028.0000,5,71.43,-9.41,5.68
12.398000,-1335.5000,5,71.43,-9.41,5.68
12.408000,-1340.2500,5,71.43,-9.41,5.68
12.418000,-982.2500,5,71.43,-9.41,5.68
12.428000,-1087.3750,5,71.43,-9.41,5.68
12.438000,-1290.0000,5,71.43,-9.41,5.68
12.448000,1023.7500,5,71.43,-9.41,5.68
12.458000,1022.7500,5,71.43,-9.41,5.68
12.468000,-1286.0000,5,71.43,-9.41,5.68
12.478000,1023.0000,5,71.43,-9.41,5.68
12.488000,1023.0000,5,71.43,-9.41,5.68
12.498000,-1335.7500,5,71.43,-9.41,5.68
12.508000,1029.7500,5,71.43,-9.41,5.68
12.518000,-1337.2500,5,71.43,-9.41,5.68
12.528000,1022.6250,5,71.43,-9.41,5.68
12.538000,-1338.0000,5,71.43,-9.41,5.68
12.548000,1022.7500,5,71.43,-9.41,5.68
12.558000,-1336.3750,5,71.43,-9.41,5.68
12.568000,1022.3750,5,71.43,-9.41,5.68
12.578000,1023.6250,5,71.43,-9.41,5.68
12.588000,1022.3750,5,71.43,-9.41,5.68
12.598000,985.8750,5,71.43,-9.41,5.68
12.608000,-1336.1250,5,71.43,-9.41,5.68
12.618000,-1336.3750,5,71.43,-9.41,5.68
12.628000,-613.1250,5,71.43,-9.41,5.68
12.638000,1023.3750,5,71.43,-9.41,5.68
12.648000,-1335.7500,5,71.43,-9.41,5.68
12.658000,-1336.6250,5,71.43,-9.41,5.68
12.668000,-73.8750,5,71.43,-9.41,5.68
12.678000,1029.7500,5,71.43,-9.41,5.68
12.688000,-34.8750,5,71.43,-9.41,5.68
12.698000,1023.6250,5,71.43,-9.41,5.68
12.708000,-1173.3750,5,71.43,-9.41,5.68
12.718000,1023.2500,5,71.43,-9.41,5.68
12.728000,-411.0000,5,71.43,-9.41,5.68
12.738000,-22.1250,5,71.43,-9.41,5.68
12.748000,-470.5000,5,71.43,-9.41,5.68
12.758000,121.0000,5,71.43,-9.41,5.68
12.768000,1024.5000,5,71.43,-9.41,5.68
12.778000,1025.8750,5,71.43,-9.41,5.68
12.788000,1022.8750,5,71.43,-9.41,5.68
12.798000,-1336.6250,5,71.43,-9.41,5.68
12.808000,-1337.5000,5,71.43,-9.41,5.68
12.818000,398.3750,5,71.43,-9.41,5.68
12.828000,1020.8750,5,71.43,-9.41,5.68
12.838000,1021.0000,5,71.43,-9.41,5.68
12.848000,-1336.8750,5,71.43,-9.41,5.68
12.858000,1022.1250,5,71.43,-9.41,5.68
12.868000,-1338.2500,5,71.43,-9.41,5.68
12.878000,1022.2500,5,71.43,-9.41,5.68
12.888000,1023.2500,5,71.43,-9.41,5.68
12.898000,-1338.6250,5,71.43,-9.41,5.68
12.908000,1022.8750,5,71.43,-9.41,5.68
12.918000,1023.7500,5,71.43,-9.41,5.68
12.928000,531.6250,5,71.43,-9.41,5.68
12.938000,1023.7500,5,71.43,-9.41,5.68
12.948000,-1337.6250,5,71.43,-9.41,5.68
12.958000,-17.7500,5,71.43,-9.41,5.68
12.968000,512.0000,5,71.43,-9.41,5.68
12.978000,443.7500,5,71.43,-9.41,5.68
12.988000,-1338.6250,5,71.43,-9.41,5.68
12.998000,1025.5000,5,71.43,-9.41,5.68
13.008000,-907.8750,5,71.43,-9.41,5.68
13.018000,1024.7500,5,71.43,-9.41,5.68
13.028000,859.6250,5,71.43,-9.41,5.68
13.038000,1023.0000,5,71.43,-9.41,5.68
13.048000,-1336.7500,5,71.43,-9.41,5.68
13.058000,-1337.1250,5,71.43,-9.41,5.68
13.068000,1023.3750,5,71.43,-9.41,5.68
13.078000,1024.2500,5,71.43,-9.41,5.68
13.088000,-716.8750,5,71.43,-9.41,5.68
13.098000,1025.7500,5,71.43,-9.41,5.68
13.108000,-1338.0000,5,71.43,-9.41,5.68
13.118000,-949.6250,5,71.43,-9.41,5.68
13.128000,1023.5000,5,71.43,-9.41,5.68
13.138000,124.7500,5,71.43,-9.41,5.68
13.148000,-464.3750,5,71.43,-9.41,5.68
13.158000,1012.0000,5,71.43,-9.41,5.68
13.168000,1023.6250,5,71.43,-9.41,5.68
13.178000,-1337.0000,5,71.43,-9.41,5.68
13.188000,1022.3750,5,71.43,-9.41,5.68
13.198000,-1337.5000,5,71.43,-9.41,5.68
13.208000,-1335.0000,5,71.43,-9.41,5.68
13.218000,1023.5000,5,71.43,-9.41,5.68
13.228000,-1337.1250,5,71.43,-9.41,5.68
13.238000,1023.5000,5,71.43,-9.41,5.68
13.248000,-1336.8750,5,71.43,-9.41,5.68
13.258000,-1337.3750,5,71.43,-9.41,5.68
13.268000,-1336.2500,5,71.43,-9.41,5.68
13.278000,1026.0000,5,71.43,-9.41,5.68
13.288000,-1337.2500,5,71.43,-9.41,5.68
13.298000,1024.3750,5,71.43,-9.41,5.68
13.308000,958.3750,5,71.43,-9.41,5.68
13.318000,-1336.8750,5,71.43,-9.41,5.68
13.328000,-1337.5000,5,71.43,-9.41,5.68
13.338000,-1338.0000,5,71.43,-9.41,5.68
13.348000,-1337.0000,5,71.43,-9.41,5.68
13.358000,-1338.1250,5,71.43,-9.41,5.68
13.368000,1023.3750,5,71.43,-9.41,5.68
13.378000,-1337.0000,5,71.43,-9.41,5.68
13.388000,1023.2500,5,71.43,-9.41,5.68
13.398000,1023.1250,5,71.43,-9.41,5.68
13.408000,1024.5000,5,71.43,-9.41,5.68
13.418000,-1340.1250,5,71.43,-9.41,5.68
13.428000,1028.6250,5,71.43,-9.41,5.68
13.438000,-1342.8750,5,71.43,-9.41,5.68
13.448000,781.7500,5,71.43,-9.41,5.68
13.458000,-1042.5000,5,71.43,-9.41,5.68
13.468000,722.1250,5,71.43,-9.41,5.68
13.478000,-1337.3750,5,71.43,-9.41,5.68
13.488000,1023.8750,5,71.43,-9.41,5.68
13.498000,-1337.2500,5,71.43,-9.41,5.68
13.508000,1023.7500,5,71.43,-9.41,5.68
13.518000,-1335.1250,5,71.43,-9.41,5.68
13.528000,1023.5000,5,71.43,-9.41,5.68
13.538000,-1336.6250,5,71.43,-9.41,5.68
13.548000,-1336.3750,5,71.43,-9.41,5.68
13.558000,1022.2500,5,71.43,-9.41,5.68
13.568000,-1338.6250,5,71.43,-9.41,5.68
13.578000,1021.5000,5,71.43,-9.41,5.68
13.588000,-1337.3750,5,71.43,-9.41,5.68
13.598000,1021.3750,5,71.43,-9.41,5.68
13.608000,-1337.0000,5,71.43,-9.41,5.68
13.618000,1022.1250,5,71.43,-9.41,5.68
13.628000,-1336.1250,5,71.43,-9.41,5.68
13.638000,1022.5000,5,71.43,-9.41,5.68
13.648000,-1336.6250,5,71.43,-9.41,5.68
13.658000,1020.7500,5,71.43,-9.41,5.68
13.668000,-1337.3750,5,71.43,-9.41,5.68
13.678000,1022.6250,5,71.43,-9.41,5.68
13.688000,-1337.8750,5,71.43,-9.41,5.68
13.698000,1022.3750,5,71.43,-9.41,5.68
13.708000,-1337.1250,5,71.43,-9.41,5.68
13.718000,1022.3750,5,71.43,-9.41,5.68
13.728000,-1336.8750,5,71.43,-9.41,5.68
13.738000,1022.5000,5,71.43,-9.41,5.68
13.748000,-1336.8750,5,71.43,-9.41,5.68
13.758000,1020.6250,5,71.43,-9.41,5.68
13.768000,1021.2500,5,71.43,-9.41,5.68
13.778000,-1336.5000,5,71.43,-9.41,5.68
13.788000,1021.2500,5,71.43,-9.41,5.68
13.798000,-1337.6250,5,71.43,-9.41,5.68
13.808000,1021.8750,5,71.43,-9.41,5.68
13.818000,-1337.7500,5,71.43,-9.41,5.68
13.828000,1022.1250,5,71.43,-9.41,5.68
13.838000,-1337.7500,5,71.43,-9.41,5.68
13.848000,1021.6250,5,71.43,-9.41,5.68
13.858000,-1338.1250,5,71.43,-9.41,5.68
13.868000,1022.0000,5,71.43,-9.41,5.68
13.878000,-1332.1250,5,71.43,-9.41,5.68
13.888000,1022.1250,5,71.43,-9.41,5.68
13.898000,-1338.5000,5,71.43,-9.41,5.68
13.908000,1021.8750,5,71.43,-9.41,5.68
13.918000,-1338.3750,5,71.43,-9.41,5.68
13.928000,1022.6250,5,71.43,-9.41,5.68
13.938000,-1342.5000,5,71.43,-9.41,5.68
13.948000,1023.2500,5,71.43,-9.41,5.68
13.958000,-1038.2500,5,71.43,-9.41,5.68
13.968000,1024.3750,5,71.43,-9.41,5.68
13.978000,-960.2500,5,71.43,-9.41,5.68
13.988000,1022.8750,5,71.43,-9.41,5.68
13.998000,-1015.6250,5,71.43,-9.41,5.68
14.008000,998.8750,5,71.43,-9.41,5.68
14.018000,-1080.6250,5,71.43,-9.41,5.68
14.028000,941.8750,5,71.43,-9.41,5.68
14.038000,-1159.0000,5,71.43,-9.41,5.68
14.048000,949.6250,5,71.43,-9.41,5.68
14.058000,499.6250,5,71.43,-9.41,5.68
14.068000,1006.1250,5,71.43,-9.41,5.68
14.078000,465.8750,5,71.43,-9.41,5.68
14.088000,1017.0000,5,71.43,-9.41,5.68
14.098000,303.1250,5,71.43,-9.41,5.68
14.108000,-774.7500,5,71.43,-9.41,5.68
14.118000,-737.1250,7,68.49,-9.78,3.84
14.128000,-1337.7500,7,68.49,-9.78,3.84
14.138000,-1312.7500,7,68.49,-9.78,3.84
14.148000,-1110.5000,7,68.49,-9.78,3.84
14.158000,1016.1250,7,68.49,-9.78,3.84
14.168000,-890.3750,7,68.49,-9.78,3.84
14.178000,960.6250,7,68.49,-9.78,3.84
14.188000,-703.7500,7,68.49,-9.78,3.84
14.198000,995.2500,7,68.49,-9.78,3.84
14.208000,-1337.3750,7,68.49,-9.78,3.84
14.218000,1017.2500,7,68.49,-9.78,3.84
14.228000,-1316.1250,7,68.49,-9.78,3.84
14.238000,1006.7500,7,68.49,-9.78,3.84
14.248000,-1295.6250,7,68.49,-9.78,3.84
14.258000,975.8750,7,68.49,-9.78,3.84
14.268000,-1247.6250,7,68.49,-9.78,3.84
14.278000,1020.2500,7,68.49,-9.78,3.84
14.288000,-1244.1250,7,68.49,-9.78,3.84
14.298000,1021.1250,7,68.49,-9.78,3.84
14.308000,-1187.0000,7,68.49,-9.78,3.84
14.318000,1021.8750,7,68.49,-9.78,3.84
14.328000,-1337.7500,7,68.49,-9.78,3.84
14.338000,1020.2500,7,68.49,-9.78,3.84
14.348000,-1337.2500,7,68.49,-9.78,3.84
14.358000,1022.1250,7,68.49,-9.78,3.84
14.368000,-1338.0000,7,68.49,-9.78,3.84
14.378000,1021.2500,7,68.49,-9.78,3.84
14.388000,-1338.6250,7,68.49,-9.78,3.84
14.398000,1021.7500,7,68.49,-9.78,3.84
14.408000,-1335.5000,7,68.49,-9.78,3.84
14.418000,1021.1250,7,68.49,-9.78,3.84
14.428000,-1336.0000,7,68.49,-9.78,3.84
14.438000,1020.3750,7,68.49,-9.78,3.84
14.448000,-1337.5000,7,68.49,-9.78,3.84
14.458000,1020.1250,7,68.49,-9.78,3.84
14.468000,-1336.8750,7,68.49,-9.78,3.84
14.478000,1022.0000,7,68.49,-9.78,3.84
14.488000,-1336.8750,7,68.49,-9.78,3.84
14.498000,1021.0000,7,68.49,-9.78,3.84
14.508000,-1337.5000,7,68.49,-9.78,3.84
14.518000,1021.1250,7,68.49,-9.78,3.84
14.528000,-1335.6250,7,68.49,-9.78,3.84
14.538000,1021.0000,7,68.49,-9.78,3.84
14.548000,-1338.6250,7,68.49,-9.78,3.84
14.558000,1020.0000,7,68.49,-9.78,3.84
14.568000,-1337.0000,7,68.49,-9.78,3.84
14.578000,1020.7500,7,68.49,-9.78,3.84
14.588000,-1338.0000,7,68.49,-9.78,3.84
14.598000,1020.5000,7,68.49,-9.78,3.84
14.608000,-1336.5000,7,68.49,-9.78,3.84
14.618000,1020.0000,7,68.49,-9.78,3.84
14.628000,-1336.3750,7,68.49,-9.78,3.84
14.638000,1019.6250,7,68.49,-9.78,3.84
14.648000,-1337.1250,7,68.49,-9.78,3.84
14.658000,1021.7500,7,68.49,-9.78,3.84
14.668000,-1337.3750,7,68.49,-9.78,3.84
14.678000,1020.1250,7,68.49,-9.78,3.84
14.688000,-1337.5000,7,68.49,-9.78,3.84
14.698000,1019.7500,7,68.49,-9.78,3.84
14.708000,-1336.2500,7,68.49,-9.78,3.84
14.718000,1020.2500,7,68.49,-9.78,3.84
14.728000,-1336.5000,7,68.49,-9.78,3.84
14.738000,1021.3750,7,68.49,-9.78,3.84
14.748000,-1338.2500,7,68.49,-9.78,3.84
14.758000,1020.8750,7,68.49,-9.78,3.84
14.768000,-1336.6250,7,68.49,-9.78,3.84
14.778000,1020.6250,7,68.49,-9.78,3.84
14.788000,-1336.6250,7,68.49,-9.78,3.84
14.798000,1021.0000,7,68.49,-9.78,3.84
14.808000,-1336.6250,7,68.49,-9.78,3.84
14.818000,1021.2500,7,68.49,-9.78,3.84
14.828000,-1338.5000,7,68.49,-9.78,3.84
14.838000,1022.1250,7,68.49,-9.78,3.84
14.848000,-1336.1250,7,68.49,-9.78,3.84
14.858000,1020.6250,7,68.49,-9.78,3.84
14.868000,-1337.3750,7,68.49,-9.78,3.84
14.878000,1020.6250,7,68.49,-9.78,3.84
14.888000,-1337.2500,7,68.49,-9.78,3.84
14.898000,1019.8750,7,68.49,-9.78,3.84
14.908000,-1337.5000,7,68.49,-9.78,3.84
14.918000,1021.5000,7,68.49,-9.78,3.84
14.928000,-1337.8750,7,68.49,-9.78,3.84
14.938000,1020.6250,7,68.49,-9.78,3.84
14.948000,-1338.0000,7,68.49,-9.78,3.84
14.958000,1020.6250,7,68.49,-9.78,3.84
14.968000,-1337.3750,7,68.49,-9.78,3.84
14.978000,1022.0000,7,68.49,-9.78,3.84
14.988000,-1335.7500,7,68.49,-9.78,3.84
14.998000,1022.1250,7,68.49,-9.78,3.84
15.008000,-1336.3750,7,68.49,-9.78,3.84
15.018000,1021.1250,7,68.49,-9.78,3.84
15.028000,-1337.5000,7,68.49,-9.78,3.84
15.038000,1022.5000,7,68.49,-9.78,3.84
15.048000,-1338.5000,7,68.49,-9.78,3.84
15.058000,1022.3750,7,68.49,-9.78,3.84
15.068000,-1338.3750,7,68.49,-9.78,3.84
15.078000,1022.3750,7,68.49,-9.78,3.84
15.088000,-1313.5000,7,68.49,-9.78,3.84
15.098000,1021.2500,7,68.49,-9.78,3.84
15.108000,-1335.0000,7,68.49,-9.78,3.84
15.118000,1023.2500,7,68.49,-9.78,3.84
15.128000,-1334.1250,7,68.49,-9.78,3.84
15.138000,1023.1250,7,68.49,-9.78,3.84
15.148000,-378.8750,7,68.49,-9.78,3.84
15.158000,1023.2500,7,68.49,-9.78,3.84
15.168000,-346.0000,7,68.49,-9.78,3.84
15.178000,1022.8750,7,68.49,-9.78,3.84
15.188000,-851.0000,7,68.49,-9.78,3.84
15.198000,1023.6250,7,68.49,-9.78,3.84
15.208000,-970.0000,7,68.49,-9.78,3.84
15.218000,541.3750,7,68.49,-9.78,3.84
15.228000,-1060.6250,7,68.49,-9.78,3.84
15.238000,652.1250,7,68.49,-9.78,3.84
15.248000,-1306.2500,7,68.49,-9.78,3.84
15.258000,607.5000,7,68.49,-9.78,3.84
15.268000,-350.0000,7,68.49,-9.78,3.84
15.278000,660.7500,7,68.49,-9.78,3.84
15.288000,-412.3750,7,68.49,-9.78,3.84
15.298000,50.8750,7,68.49,-9.78,3.84
15.308000,-817.2500,7,68.49,-9.78,3.84
15.318000,-1070.7500,7,68.49,-9.78,3.84
15.328000,-684.6250,7,68.49,-9.78,3.84
15.338000,-868.3750,7,68.49,-9.78,3.84
15.348000,-553.8750,7,68.49,-9.78,3.84
15.358000,-421.1250,7,68.49,-9.78,3.84
15.368000,1010.7500,7,68.49,-9.78,3.84
15.378000,-1018.8750,7,68.49,-9.78,3.84
15.388000,1011.2500,7,68.49,-9.78,3.84
15.398000,-908.7500,7,68.49,-9.78,3.84
15.408000,1025.8750,7,68.49,-9.78,3.84
15.418000,-1337.6250,7,68.49,-9.78,3.84
15.428000,974.3750,7,68.49,-9.78,3.84
15.438000,-1193.7500,7,68.49,-9.78,3.84
15.448000,1024.3750,7,68.49,-9.78,3.84
15.458000,-946.6250,7,68.49,-9.78,3.84
15.468000,1021.1250,7,68.49,-9.78,3.84
15.478000,-1278.2500,7,68.49,-9.78,3.84
15.488000,1021.2500,7,68.49,-9.78,3.84
15.498000,-1194.5000,7,68.49,-9.78,3.84
15.508000,1020.2500,7,68.49,-9.78,3.84
15.518000,-1337.3750,7,68.49,-9.78,3.84
15.528000,1021.8750,7,68.49,-9.78,3.84
15.538000,-1336.5000,7,68.49,-9.78,3.84
15.548000,1019.5000,7,68.49,-9.78,3.84
15.558000,-1315.2500,7,68.49,-9.78,3.84
15.568000,1020.6250,7,68.49,-9.78,3.84
15.578000,-1336.8750,7,68.49,-9.78,3.84
15.588000,1021.2500,7,68.49,-9.78,3.84
15.598000,-880.2500,7,68.49,-9.78,3.84
15.608000,1021.8750,7,68.49,-9.78,3.84
15.618000,-1337.7500,7,68.49,-9.78,3.84
15.628000,1022.5000,7,68.49,-9.78,3.84
15.638000,-1336.8750,7,68.49,-9.78,3.84
15.648000,1022.3750,7,68.49,-9.78,3.84
15.658000,-1336.5000,7,68.49,-9.78,3.84
15.668000,1021.7500,7,68.49,-9.78,3.84
15.678000,-1336.5000,7,68.49,-9.78,3.84
15.688000,1023.3750,7,68.49,-9.78,3.84
15.698000,-1336.5000,7,68.49,-9.78,3.84
15.708000,1022.6250,7,68.49,-9.78,3.84
15.718000,-1337.3750,7,68.49,-9.78,3.84
15.728000,1023.6250,7,68.49,-9.78,3.84
15.738000,1024.7500,7,68.49,-9.78,3.84
15.748000,1024.7500,7,68.49,-9.78,3.84
15.758000,-1336.8750,7,68.49,-9.78,3.84
15.768000,1023.3750,7,68.49,-9.78,3.84
15.778000,1023.5000,7,68.49,-9.78,3.84
15.788000,1024.8750,7,68.49,-9.78,3.84
15.798000,-1337.2500,7,68.49,-9.78,3.84
15.808000,-1337.6250,7,68.49,-9.78,3.84
15.818000,-1336.2500,7,68.49,-9.78,3.84
15.828000,1025.3750,7,68.49,-9.78,3.84
15.838000,-1337.3750,7,68.49,-9.78,3.84
15.848000,1025.0000,7,68.49,-9.78,3.84
15.858000,1026.0000,7,68.49,-9.78,3.84
15.868000,1025.2500,7,68.49,-9.78,3.84
15.878000,-1336.5000,7,68.49,-9.78,3.84
15.888000,1026.6250,7,68.49,-9.78,3.84
15.898000,-1335.7500,7,68.49,-9.78,3.84
15.908000,1026.3750,7,68.49,-9.78,3.84
15.918000,-1336.3750,7,68.49,-9.78,3.84
15.928000,1025.6250,7,68.49,-9.78,3.84
15.938000,-1336.8750,7,68.49,-9.78,3.84
15.948000,1025.5000,7,68.49,-9.78,3.84
15.958000,1025.7500,7,68.49,-9.78,3.84
15.968000,1026.8750,7,68.49,-9.78,3.84
15.978000,1026.6250,7,68.49,-9.78,3.84
15.988000,1026.7500,7,68.49,-9.78,3.84
15.998000,1028.0000,7,68.49,-9.78,3.84
16.008000,1026.2500,7,68.49,-9.78,3.84
16.018000,-1336.2500,7,68.49,-9.78,3.84
16.028000,1027.2500,7,68.49,-9.78,3.84
16.038000,1027.3750,7,68.49,-9.78,3.84
16.048000,-1162.8750,7,68.49,-9.78,3.84
16.058000,1028.3750,7,68.49,-9.78,3.84
16.068000,-1335.7500,7,68.49,-9.78,3.84
16.078000,1027.5000,7,68.49,-9.78,3.84
16.088000,1029.0000,7,68.49,-9.78,3.84
16.098000,1033.0000,7,68.49,-9.78,3.84
16.108000,-158.6250,7,68.49,-9.78,3.84
16.118000,-1122.5000,7,68.49,-9.78,3.84
16.128000,-380.8750,7,68.49,-9.78,3.84
16.138000,888.3750,7,68.49,-9.78,3.84
16.148000,82.5000,7,68.49,-9.78,3.84
16.158000,1001.8750,7,68.49,-9.78,3.84
16.168000,1028.7500,7,68.49,-9.78,3.84
16.178000,-823.1250,7,68.49,-9.78,3.84
16.188000,1019.3750,7,68.49,-9.78,3.84
16.198000,1029.2500,7,68.49,-9.78,3.84
16.208000,1029.8750,7,68.49,-9.78,3.84
16.218000,-237.0000,7,68.49,-9.78,3.84
16.228000,1032.3750,7,68.49,-9.78,3.84
16.238000,-393.0000,7,68.49,-9.78,3.84
16.248000,1031.8750,7,68.49,-9.78,3.84
16.258000,-181.0000,7,68.49,-9.78,3.84
16.268000,1029.0000,7,68.49,-9.78,3.84
16.278000,98.7500,7,68.49,-9.78,3.84
16.288000,1028.8750,7,68.49,-9.78,3.84
16.298000,1029.6250,7,68.49,-9.78,3.84
16.308000,1031.2500,7,68.49,-9.78,3.84
16.318000,1035.1250,7,68.49,-9.78,3.84
16.328000,1039.7500,7,68.49,-9.78,3.84
16.338000,983.1250,7,68.49,-9.78,3.84
16.348000,851.0000,7,68.49,-9.78,3.84
16.358000,817.7500,7,68.49,-9.78,3.84
16.368000,785.3750,7,68.49,-9.78,3.84
16.378000,758.6250,7,68.49,-9.78,3.84
16.388000,724.1250,7,68.49,-9.78,3.84
16.398000,689.2500,7,68.49,-9.78,3.84
16.408000,663.8750,7,68.49,-9.78,3.84
16.418000,555.5000,7,68.49,-9.78,3.84
16.428000,435.3750,7,68.49,-9.78,3.84
16.438000,374.7500,7,68.49,-9.78,3.84
16.448000,529.7500,7,68.49,-9.78,3.84
16.458000,99.3750,7,68.49,-9.78,3.84
16.468000,-1337.0000,7,68.49,-9.78,3.84
16.478000,932.6250,7,68.49,-9.78,3.84
16.488000,-1138.0000,7,68.49,-9.78,3.84
16.498000,1009.2500,7,68.49,-9.78,3.84
16.508000,1000.1250,7,68.49,-9.78,3.84
16.518000,120.7500,7,68.49,-9.78,3.84
16.528000,-1338.0000,7,68.49,-9.78,3.84
16.538000,1039.7500,7,68.49,-9.78,3.84
16.548000,1037.6250,7,68.49,-9.78,3.84
16.558000,-1336.7500,7,68.49,-9.78,3.84
16.568000,-1337.3750,7,68.49,-9.78,3.84
16.578000,-1337.3750,7,68.49,-9.78,3.84
16.588000,-1336.8750,7,68.49,-9.78,3.84
16.598000,-1338.5000,7,68.49,-9.78,3.84
16.608000,1035.5000,7,68.49,-9.78,3.84
16.618000,1033.0000,7,68.49,-9.78,3.84
16.628000,217.6250,7,68.49,-9.78,3.84
16.638000,1033.8750,7,68.49,-9.78,3.84
16.648000,1033.3750,7,68.49,-9.78,3.84
16.658000,1012.8750,7,68.49,-9.78,3.84
16.668000,1034.5000,7,68.49,-9.78,3.84
16.678000,1023.7500,7,68.49,-9.78,3.84
16.688000,146.7500,7,68.49,-9.78,3.84
16.698000,1000.3750,7,68.49,-9.78,3.84
16.708000,133.1250,7,68.49,-9.78,3.84
16.718000,1031.2500,7,68.49,-9.78,3.84
16.728000,1031.1250,7,68.49,-9.78,3.84
16.738000,-1076.3750,7,68.49,-9.78,3.84
16.748000,-1337.0000,7,68.49,-9.78,3.84
16.758000,-1336.3750,7,68.49,-9.78,3.84
16.768000,1031.3750,7,68.49,-9.78,3.84
16.778000,1029.1250,7,68.49,-9.78,3.84
16.788000,1032.5000,7,68.49,-9.78,3.84
16.798000,1036.1250,7,68.49,-9.78,3.84
16.808000,323.1250,7,68.49,-9.78,3.84
16.818000,1040.1250,7,68.49,-9.78,3.84
16.828000,1037.0000,7,68.49,-9.78,3.84
16.838000,1037.2500,7,68.49,-9.78,3.84
16.848000,-1337.0000,7,68.49,-9.78,3.84
16.858000,-1336.3750,7,68.49,-9.78,3.84
16.868000,1038.7500,7,68.49,-9.78,3.84
16.878000,-1337.3750,7,68.49,-9.78,3.84
16.888000,-1337.1250,7,68.49,-9.78,3.84
16.898000,1035.5000,7,68.49,-9.78,3.84
16.908000,-896.8750,7,68.49,-9.78,3.84
16.918000,1036.1250,7,68.49,-9.78,3.84
16.928000,648.3750,7,68.49,-9.78,3.84
16.938000,594.6250,7,68.49,-9.78,3.84
16.948000,516.7500,7,68.49,-9.78,3.84
16.958000,401.8750,7,68.49,-9.78,3.84
16.968000,380.3750,7,68.49,-9.78,3.84
16.978000,355.0000,7,68.49,-9.78,3.84
16.988000,338.8750,7,68.49,-9.78,3.84
16.998000,315.0000,7,68.49,-9.78,3.84
17.008000,304.1250,7,68.49,-9.78,3.84
17.018000,292.5000,7,68.49,-9.78,3.84
17.028000,281.1250,7,68.49,-9.78,3.84
17.038000,243.2500,7,68.49,-9.78,3.84
17.048000,208.6250,7,68.49,-9.78,3.84
17.058000,169.5000,7,68.49,-9.78,3.84
17.068000,76.0000,7,68.49,-9.78,3.84
17.078000,61.0000,7,68.49,-9.78,3.84
17.088000,46.0000,7,68.49,-9.78,3.84
17.098000,34.1250,7,68.49,-9.78,3.84
17.108000,19.2500,7,68.49,-9.78,3.84
17.118000,11.2500,7,68.49,-9.78,3.84
17.128000,3.8750,7,68.49,-9.78,3.84
17.138000,-2.0000,7,68.49,-9.78,3.84
17.148000,-37.2500,7,68.49,-9.78,3.84
17.158000,-52.8750,7,68.49,-9.78,3.84
17.168000,-106.8750,7,68.49,-9.78,3.84
17.178000,-141.6250,7,68.49,-9.78,3.84
17.188000,-155.7500,7,68.49,-9.78,3.84
17.198000,-165.3750,7,68.49,-9.78,3.84
17.208000,-172.3750,7,68.49,-9.78,3.84
17.218000,-181.7500,7,68.49,-9.78,3.84
17.228000,-186.7500,7,68.49,-9.78,3.84
17.238000,-191.8750,7,68.49,-9.78,3.84
17.248000,-201.7500,7,68.49,-9.78,3.84
17.258000,-218.8750,7,68.49,-9.78,3.84
17.268000,-228.5000,7,68.49,-9.78,3.84
17.278000,-242.0000,7,68.49,-9.78,3.84
17.288000,-250.0000,7,68.49,-9.78,3.84
17.298000,-280.1250,7,68.49,-9.78,3.84
17.308000,-294.1250,7,68.49,-9.78,3.84
17.318000,-299.8750,7,68.49,-9.78,3.84
17.328000,-302.2500,7,68.49,-9.78,3.84
17.338000,-308.2500,7,68.49,-9.78,3.84
17.348000,-311.3750,7,68.49,-9.78,3.84
17.358000,-316.2500,7,68.49,-9.78,3.84
17.368000,-322.2500,7,68.49,-9.78,3.84
17.378000,-323.3750,7,68.49,-9.78,3.84
17.388000,-325.7500,7,68.49,-9.78,3.84
17.398000,-328.2500,7,68.49,-9.78,3.84
17.408000,-337.5000,7,68.49,-9.78,3.84
17.418000,-339.8750,7,68.49,-9.78,3.84
17.428000,-343.1250,7,68.49,-9.78,3.84
17.438000,-349.7500,7,68.49,-9.78,3.84
17.448000,-355.6250,7,68.49,-9.78,3.84
17.458000,-358.7500,7,68.49,-9.78,3.84
17.468000,-359.2500,7,68.49,-9.78,3.84
17.478000,-361.1250,7,68.49,-9.78,3.84
17.488000,-361.6250,7,68.49,-9.78,3.84
17.498000,-363.3750,7,68.49,-9.78,3.84
17.508000,-364.3750,7,68.49,-9.78,3.84
17.518000,-362.0000,7,68.49,-9.78,3.84
17.528000,-365.1250,7,68.49,-9.78,3.84
17.538000,-363.6250,7,68.49,-9.78,3.84
17.548000,-363.6250,7,68.49,-9.78,3.84
17.558000,-366.8750,7,68.49,-9.78,3.84
17.568000,-364.6250,7,68.49,-9.78,3.84
17.578000,-367.1250,7,68.49,-9.78,3.84
17.588000,-365.0000,7,68.49,-9.78,3.84
17.598000,-367.0000,7,68.49,-9.78,3.84
17.608000,-366.0000,7,68.49,-9.78,3.84
17.618000,-365.3750,7,68.49,-9.78,3.84
17.628000,-367.1250,7,68.49,-9.78,3.84
17.638000,-367.3750,7,68.49,-9.78,3.84
17.648000,-367.5000,7,68.49,-9.78,3.84
17.658000,-365.3750,7,68.49,-9.78,3.84
17.668000,-367.2500,7,68.49,-9.78,3.84
17.678000,-364.6250,7,68.49,-9.78,3.84
17.688000,-366.8750,7,68.49,-9.78,3.84
17.698000,-364.5000,7,68.49,-9.78,3.84
17.708000,-366.7500,7,68.49,-9.78,3.84
17.718000,-365.6250,7,68.49,-9.78,3.84
17.728000,-363.7500,7,68.49,-9.78,3.84
17.738000,-366.0000,7,68.49,-9.78,3.84
17.748000,-362.5000,7,68.49,-9.78,3.84
17.758000,-365.3750,7,68.49,-9.78,3.84
17.768000,-362.6250,7,68.49,-9.78,3.84
17.778000,-365.6250,7,68.49,-9.78,3.84
17.788000,-361.5000,7,68.49,-9.78,3.84
17.798000,-364.5000,7,68.49,-9.78,3.84
17.808000,-360.6250,7,68.49,-9.78,3.84
17.818000,-363.1250,7,68.49,-9.78,3.84
17.828000,-360.5000,7,68.49,-9.78,3.84
17.838000,-362.7500,7,68.49,-9.78,3.84
17.848000,-360.1250,7,68.49,-9.78,3.84
17.858000,-361.5000,7,68.49,-9.78,3.84
17.868000,-358.5000,7,68.49,-9.78,3.84
17.878000,-360.3750,7,68.49,-9.78,3.84
17.888000,-357.8750,7,68.49,-9.78,3.84
17.898000,-359.5000,7,68.49,-9.78,3.84
17.908000,-358.6250,7,68.49,-9.78,3.84
17.918000,-357.8750,7,68.49,-9.78,3.84
17.928000,-356.6250,7,68.49,-9.78,3.84
17.938000,-356.1250,7,68.49,-9.78,3.84
17.948000,-354.3750,7,68.49,-9.78,3.84
17.958000,-353.7500,7,68.49,-9.78,3.84
17.968000,-354.3750,7,68.49,-9.78,3.84
17.978000,-353.6250,7,68.49,-9.78,3.84
17.988000,-351.0000,7,68.49,-9.78,3.84
17.998000,-352.6250,7,68.49,-9.78,3.84
18.008000,-351.3750,7,68.49,-9.78,3.84
18.018000,-351.2500,7,68.49,-9.78,3.84
18.028000,-349.5000,7,68.49,-9.78,3.84
18.038000,-349.5000,7,68.49,-9.78,3.84
18.048000,-347.5000,7,68.49,-9.78,3.84
18.058000,-347.8750,7,68.49,-9.78,3.84
18.068000,-347.2500,7,68.49,-9.78,3.84
18.078000,-345.8750,7,68.49,-9.78,3.84
18.088000,-346.3750,7,68.49,-9.78,3.84
18.098000,-345.5000,7,68.49,-9.78,3.84
18.108000,-345.2500,7,68.49,-9.78,3.84
18.118000,-343.5000,7,68.49,-9.78,3.84
18.128000,-342.5000,7,68.49,-9.78,3.84
18.138000,-342.0000,9,71.17,-9.86,3.46
18.148000,-341.0000,9,71.17,-9.86,3.46
18.158000,-339.7500,9,71.17,-9.86,3.46
18.168000,-339.1250,9,71.17,-9.86,3.46
18.178000,-338.2500,9,71.17,-9.86,3.46
18.188000,-337.3750,9,71.17,-9.86,3.46
18.198000,-336.7500,9,71.17,-9.86,3.46
18.208000,-336.0000,9,71.17,-9.86,3.46
18.218000,-335.0000,9,71.17,-9.86,3.46
18.228000,-334.1250,9,71.17,-9.86,3.46
18.238000,-333.8750,9,71.17,-9.86,3.46
18.248000,-332.7500,9,71.17,-9.86,3.46
18.258000,-332.8750,9,71.17,-9.86,3.46
18.268000,-331.3750,9,71.17,-9.86,3.46
18.278000,-331.0000,9,71.17,-9.86,3.46
18.288000,-330.2500,9,71.17,-9.86,3.46
18.298000,-329.0000,9,71.17,-9.86,3.46
18.308000,-328.1250,9,71.17,-9.86,3.46
18.318000,-327.3750,9,71.17,-9.86,3.46
18.328000,-326.3750,9,71.17,-9.86,3.46
18.338000,-325.5000,9,71.17,-9.86,3.46
18.348000,-324.6250,9,71.17,-9.86,3.46
18.358000,-323.2500,9,71.17,-9.86,3.46
18.368000,-322.6250,9,71.17,-9.86,3.46
18.378000,-321.8750,9,71.17,-9.86,3.46
18.388000,-321.3750,9,71.17,-9.86,3.46
18.398000,-320.0000,9,71.17,-9.86,3.46
18.408000,-319.8750,9,71.17,-9.86,3.46
18.418000,-319.3750,9,71.17,-9.86,3.46
18.428000,-317.8750,9,71.17,-9.86,3.46
18.438000,-316.8750,9,71.17,-9.86,3.46
18.448000,-316.1250,9,71.17,-9.86,3.46
18.458000,-316.5000,9,71.17,-9.86,3.46
18.468000,-314.8750,9,71.17,-9.86,3.46
18.478000,-313.2500,9,71.17,-9.86,3.46
18.488000,-312.8750,9,71.17,-9.86,3.46
18.498000,-311.6250,9,71.17,-9.86,3.46
18.508000,-310.8750,9,71.17,-9.86,3.46
18.518000,-310.1250,9,71.17,-9.86,3.46
18.528000,-309.6250,9,71.17,-9.86,3.46
18.538000,-308.6250,9,71.17,-9.86,3.46
18.548000,-308.1250,9,71.17,-9.86,3.46
18.558000,-307.1250,9,71.17,-9.86,3.46
18.568000,-305.6250,9,71.17,-9.86,3.46
18.578000,-305.7500,9,71.17,-9.86,3.46
18.588000,-305.3750,9,71.17,-9.86,3.46
18.598000,-304.0000,9,71.17,-9.86,3.46
18.608000,-302.6250,9,71.17,-9.86,3.46
18.618000,-301.6250,9,71.17,-9.86,3.46
18.628000,-300.5000,9,71.17,-9.86,3.46
18.638000,-300.1250,9,71.17,-9.86,3.46
18.648000,-298.7500,9,71.17,-9.86,3.46
18.658000,-297.3750,9,71.17,-9.86,3.46
18.668000,-296.8750,9,71.17,-9.86,3.46
18.678000,-296.7500,9,71.17,-9.86,3.46
18.688000,-295.5000,9,71.17,-9.86,3.46
18.698000,-295.2500,9,71.17,-9.86,3.46
18.708000,-294.8750,9,71.17,-9.86,3.46
18.718000,-293.1250,9,71.17,-9.86,3.46
18.728000,-293.0000,9,71.17,-9.86,3.46
18.738000,-291.6250,9,71.17,-9.86,3.46
18.748000,-291.0000,9,71.17,-9.86,3.46
18.758000,-288.5000,9,71.17,-9.86,3.46
18.768000,-288.1250,9,71.17,-9.86,3.46
18.778000,-289.6250,9,71.17,-9.86,3.46
18.788000,-286.8750,9,71.17,-9.86,3.46
18.798000,-286.2500,9,71.17,-9.86,3.46
18.808000,-284.5000,9,71.17,-9.86,3.46
18.818000,-282.2500,9,71.17,-9.86,3.46
18.828000,-284.3750,9,71.17,-9.86,3.46
18.838000,-282.2500,9,71.17,-9.86,3.46
18.848000,-279.3750,9,71.17,-9.86,3.46
18.858000,-279.5000,9,71.17,-9.86,3.46
18.868000,-279.0000,9,71.17,-9.86,3.46
18.878000,-274.1250,9,71.17,-9.86,3.46
18.888000,-277.3750,9,71.17,-9.86,3.46
18.898000,-285.2500,9,71.17,-9.86,3.46
18.908000,-274.8750,9,71.17,-9.86,3.46
18.918000,-281.8750,9,71.17,-9.86,3.46
18.928000,-272.6250,9,71.17,-9.86,3.46
18.938000,-265.2500,9,71.17,-9.86,3.46
18.948000,-265.5000,9,71.17,-9.86,3.46
18.958000,-295.3750,9,71.17,-9.86,3.46
18.968000,-267.0000,9,71.17,-9.86,3.46
18.978000,-248.0000,9,71.17,-9.86,3.46
18.988000,-268.5000,9,71.17,-9.86,3.46
18.998000,-265.0000,9,71.17,-9.86,3.46
19.008000,-267.8750,9,71.17,-9.86,3.46
19.018000,-265.7500,9,71.17,-9.86,3.46
19.028000,-273.6250,9,71.17,-9.86,3.46
19.038000,-262.8750,9,71.17,-9.86,3.46
19.048000,-271.0000,9,71.17,-9.86,3.46
19.058000,-260.3750,9,71.17,-9.86,3.46
19.068000,-262.2500,9,71.17,-9.86,3.46
19.078000,-258.1250,9,71.17,-9.86,3.46
19.088000,-266.0000,9,71.17,-9.86,3.46
19.098000,-258.6250,9,71.17,-9.86,3.46
19.108000,-250.7500,9,71.17,-9.86,3.46
19.118000,-255.6250,9,71.17,-9.86,3.46
19.128000,-258.2500,9,71.17,-9.86,3.46
19.138000,-256.8750,9,71.17,-9.86,3.46
19.148000,-253.8750,9,71.17,-9.86,3.46
19.158000,-252.2500,9,71.17,-9.86,3.46
19.168000,-253.1250,9,71.17,-9.86,3.46
19.178000,-250.7500,9,71.17,-9.86,3.46
19.188000,-250.2500,9,71.17,-9.86,3.46
19.198000,-252.6250,9,71.17,-9.86,3.46
19.208000,-247.2500,9,71.17,-9.86,3.46
19.218000,-248.6250,9,71.17,-9.86,3.46
19.228000,-247.5000,9,71.17,-9.86,3.46
19.238000,-249.1250,9,71.17,-9.86,3.46
19.248000,-245.7500,9,71.17,-9.86,3.46
19.258000,-245.6250,9,71.17,-9.86,3.46
19.268000,-244.6250,9,71.17,-9.86,3.46
19.278000,-243.3750,9,71.17,-9.86,3.46
19.288000,-244.0000,9,71.17,-9.86,3.46
19.298000,-242.2500,9,71.17,-9.86,3.46
19.308000,-241.0000,9,71.17,-9.86,3.46
19.318000,-242.5000,9,71.17,-9.86,3.46
19.328000,-240.6250,9,71.17,-9.86,3.46
19.338000,-240.1250,9,71.17,-9.86,3.46
19.348000,-238.3750,9,71.17,-9.86,3.46
19.358000,-237.6250,9,71.17,-9.86,3.46
19.368000,-237.6250,9,71.17,-9.86,3.46
19.378000,-236.0000,9,71.17,-9.86,3.46
19.388000,-235.7500,9,71.17,-9.86,3.46
19.398000,-235.5000,9,71.17,-9.86,3.46
19.408000,-234.8750,9,71.17,-9.86,3.46
19.418000,-234.1250,9,71.17,-9.86,3.46
19.428000,-233.2500,9,71.17,-9.86,3.46
19.438000,-230.8750,9,71.17,-9.86,3.46
19.448000,-230.7500,9,71.17,-9.86,3.46
19.458000,-230.7500,9,71.17,-9.86,3.46
19.468000,-230.7500,9,71.17,-9.86,3.46
19.478000,-228.8750,9,71.17,-9.86,3.46
19.488000,-229.1250,9,71.17,-9.86,3.46
19.498000,-227.6250,9,71.17,-9.86,3.46
19.508000,-226.2500,9,71.17,-9.86,3.46
19.518000,-225.8750,9,71.17,-9.86,3.46
19.528000,-225.7500,9,71.17,-9.86,3.46
19.538000,-223.3750,9,71.17,-9.86,3.46
19.548000,-223.0000,9,71.17,-9.86,3.46
19.558000,-223.0000,9,71.17,-9.86,3.46
19.568000,-222.7500,9,71.17,-9.86,3.46
19.578000,-221.3750,9,71.17,-9.86,3.46
19.588000,-221.1250,9,71.17,-9.86,3.46
19.598000,-220.1250,9,71.17,-9.86,3.46
19.608000,-219.1250,9,71.17,-9.86,3.46
19.618000,-218.8750,9,71.17,-9.86,3.46
19.628000,-218.3750,9,71.17,-9.86,3.46
19.638000,-217.2500,9,71.17,-9.86,3.46
19.648000,-217.2500,9,71.17,-9.86,3.46
19.658000,-215.1250,9,71.17,-9.86,3.46
19.668000,-216.0000,9,71.17,-9.86,3.46
19.678000,-213.8750,9,71.17,-9.86,3.46
19.688000,-212.7500,9,71.17,-9.86,3.46
19.698000,-214.1250,9,71.17,-9.86,3.46
19.708000,-212.6250,9,71.17,-9.86,3.46
19.718000,-211.6250,9,71.17,-9.86,3.46
19.728000,-210.3750,9,71.17,-9.86,3.46
19.738000,-209.7500,9,71.17,-9.86,3.46
19.748000,-209.8750,9,71.17,-9.86,3.46
19.758000,-208.7500,9,71.17,-9.86,3.46
19.768000,-207.3750,9,71.17,-9.86,3.46
19.778000,-208.6250,9,71.17,-9.86,3.46
19.788000,-207.0000,9,71.17,-9.86,3.46
19.798000,-205.7500,9,71.17,-9.86,3.46
19.808000,-206.5000,9,71.17,-9.86,3.46
19.818000,-204.6250,9,71.17,-9.86,3.46
19.828000,-204.1250,9,71.17,-9.86,3.46
19.838000,-203.7500,9,71.17,-9.86,3.46
19.848000,-203.3750,9,71.17,-9.86,3.46
19.858000,-202.0000,9,71.17,-9.86,3.46
19.868000,-201.5000,9,71.17,-9.86,3.46
19.878000,-200.7500,9,71.17,-9.86,3.46
19.888000,-200.6250,9,71.17,-9.86,3.46
19.898000,-199.5000,9,71.17,-9.86,3.46
19.908000,-197.5000,9,71.17,-9.86,3.46
19.918000,-194.8750,9,71.17,-9.86,3.46
19.928000,-193.6250,9,71.17,-9.86,3.46
19.938000,-191.3750,9,71.17,-9.86,3.46
19.948000,-188.6250,9,71.17,-9.86,3.46
19.958000,-180.8750,9,71.17,-9.86,3.46
19.968000,-182.7500,9,71.17,-9.86,3.46
19.978000,-182.3750,9,71.17,-9.86,3.46
19.988000,-177.3750,9,71.17,-9.86,3.46
19.998000,-176.7500,9,71.17,-9.86,3.46
20.008000,-177.2500,9,71.17,-9.86,3.46
20.018000,-176.0000,9,71.17,-9.86,3.46
20.028000,-176.1250,9,71.17,-9.86,3.46
20.038000,-175.3750,9,71.17,-9.86,3.46
20.048000,-175.6250,9,71.17,-9.86,3.46
20.058000,-174.6250,9,71.17,-9.86,3.46
20.068000,-172.2500,9,71.17,-9.86,3.46
20.078000,-173.0000,9,71.17,-9.86,3.46
20.088000,-170.7500,9,71.17,-9.86,3.46
20.098000,-172.3750,9,71.17,-9.86,3.46
20.108000,-172.2500,9,71.17,-9.86,3.46
20.118000,-169.8750,9,71.17,-9.86,3.46
20.128000,-163.2500,9,71.17,-9.86,3.46
20.138000,-160.3750,9,71.17,-9.86,3.46
20.148000,-161.3750,9,71.17,-9.86,3.46
20.158000,-151.5000,9,71.17,-9.86,3.46
20.168000,-150.1250,9,71.17,-9.86,3.46
20.178000,-150.5000,9,71.17,-9.86,3.46
20.188000,-146.1250,9,71.17,-9.86,3.46
20.198000,-148.7500,9,71.17,-9.86,3.46
20.208000,-144.3750,9,71.17,-9.86,3.46
20.218000,-144.6250,9,71.17,-9.86,3.46
20.228000,-141.5000,9,71.17,-9.86,3.46
20.238000,-146.1250,9,71.17,-9.86,3.46
20.248000,-140.8750,9,71.17,-9.86,3.46
20.258000,-145.0000,9,71.17,-9.86,3.46
20.268000,-140.2500,9,71.17,-9.86,3.46
20.278000,-144.7500,9,71.17,-9.86,3.46
20.288000,-140.5000,9,71.17,-9.86,3.46
20.298000,-144.8750,9,71.17,-9.86,3.46
20.308000,-139.7500,9,71.17,-9.86,3.46
20.318000,-143.1250,9,71.17,-9.86,3.46
20.328000,-139.1250,9,71.17,-9.86,3.46
20.338000,-142.3750,9,71.17,-9.86,3.46
20.348000,-137.7500,9,71.17,-9.86,3.46
20.358000,-141.7500,9,71.17,-9.86,3.46
20.368000,-137.1250,9,71.17,-9.86,3.46
20.378000,-141.3750,9,71.17,-9.86,3.46
20.388000,-139.3750,9,71.17,-9.86,3.46
20.398000,-139.2500,9,71.17,-9.86,3.46
20.408000,-138.3750,9,71.17,-9.86,3.46
20.418000,-136.3750,9,71.17,-9.86,3.46
20.428000,-135.1250,9,71.17,-9.86,3.46
20.438000,-133.5000,9,71.17,-9.86,3.46
20.448000,-126.7500,9,71.17,-9.86,3.46
20.458000,-125.6250,9,71.17,-9.86,3.46
20.468000,-125.0000,9,71.17,-9.86,3.46
20.478000,-124.8750,9,71.17,-9.86,3.46
20.488000,-124.5000,9,71.17,-9.86,3.46
20.498000,-123.6250,9,71.17,-9.86,3.46
20.508000,-126.0000,9,71.17,-9.86,3.46
20.518000,-122.6250,9,71.17,-9.86,3.46
20.528000,-123.3750,9,71.17,-9.86,3.46
20.538000,-120.8750,9,71.17,-9.86,3.46
20.548000,-120.0000,9,71.17,-9.86,3.46
20.558000,-117.2500,9,71.17,-9.86,3.46
20.568000,-114.5000,9,71.17,-9.86,3.46
20.578000,-113.5000,9,71.17,-9.86,3.46
20.588000,-111.6250,9,71.17,-9.86,3.46
20.598000,-115.3750,9,71.17,-9.86,3.46
20.608000,-112.1250,9,71.17,-9.86,3.46
20.618000,-111.7500,9,71.17,-9.86,3.46
20.628000,-111.1250,9,71.17,-9.86,3.46
20.638000,-113.6250,9,71.17,-9.86,3.46
20.648000,-112.8750,9,71.17,-9.86,3.46
20.658000,-111.0000,9,71.17,-9.86,3.46
20.668000,-110.2500,9,71.17,-9.86,3.46
20.678000,-111.3750,9,71.17,-9.86,3.46
20.688000,-111.8750,9,71.17,-9.86,3.46
20.698000,-108.8750,9,71.17,-9.86,3.46
20.708000,-108.1250,9,71.17,-9.86,3.46
20.718000,-110.3750,9,71.17,-9.86,3.46
20.728000,-106.5000,9,71.17,-9.86,3.46
20.738000,-109.7500,9,71.17,-9.86,3.46
20.748000,-105.5000,9,71.17,-9.86,3.46
20.758000,-108.6250,9,71.17,-9.86,3.46
20.768000,-105.7500,9,71.17,-9.86,3.46
20.778000,-108.7500,9,71.17,-9.86,3.46
20.788000,-105.5000,9,71.17,-9.86,3.46
20.798000,-105.6250,9,71.17,-9.86,3.46
20.808000,-107.7500,9,71.17,-9.86,3.46
20.818000,-107.0000,9,71.17,-9.86,3.46
20.828000,-107.7500,9,71.17,-9.86,3.46
20.838000,-106.6250,9,71.17,-9.86,3.46
20.848000,-106.3750,9,71.17,-9.86,3.46
20.858000,-105.3750,9,71.17,-9.86,3.46
20.868000,-105.5000,9,71.17,-9.86,3.46
20.878000,-105.5000,9,71.17,-9.86,3.46
20.888000,-104.7500,9,71.17,-9.86,3.46
20.898000,-102.5000,9,71.17,-9.86,3.46
20.908000,-102.2500,9,71.17,-9.86,3.46
20.918000,-103.8750,9,71.17,-9.86,3.46
20.928000,-104.5000,9,71.17,-9.86,3.46
20.938000,-101.7500,9,71.17,-9.86,3.46
20.948000,-100.3750,9,71.17,-9.86,3.46
20.958000,-100.1250,9,71.17,-9.86,3.46
20.968000,-103.0000,9,71.17,-9.86,3.46
20.978000,-101.1250,9,71.17,-9.86,3.46
20.988000,-102.1250,9,71.17,-9.86,3.46
20.998000,-102.7500,9,71.17,-9.86,3.46
21.008000,-101.7500,9,71.17,-9.86,3.46
21.018000,-99.1250,9,71.17,-9.86,3.46
21.028000,-101.2500,9,71.17,-9.86,3.46
21.038000,-99.5000,9,71.17,-9.86,3.46
21.048000,-101.2500,9,71.17,-9.86,3.46
21.058000,-100.8750,9,71.17,-9.86,3.46
21.068000,-100.7500,9,71.17,-9.86,3.46
21.078000,-98.7500,9,71.17,-9.86,3.46
21.088000,-98.8750,9,71.17,-9.86,3.46
21.098000,-99.2500,9,71.17,-9.86,3.46
21.108000,-99.8750,9,71.17,-9.86,3.46
21.118000,-1336.8750,9,71.17,-9.86,3.46
21.128000,-1068.2500,9,71.17,-9.86,3.46
21.138000,15.3750,9,71.17,-9.86,3.46
21.148000,-1213.6250,9,71.17,-9.86,3.46
21.158000,84.1250,9,71.17,-9.86,3.46
21.168000,-409.2500,9,71.17,-9.86,3.46
21.178000,169.1250,9,71.17,-9.86,3.46
21.188000,156.8750,9,71.17,-9.86,3.46
21.198000,152.5000,9,71.17,-9.86,3.46
21.208000,146.6250,9,71.17,-9.86,3.46
21.218000,139.5000,9,71.17,-9.86,3.46
21.228000,131.5000,9,71.17,-9.86,3.46
21.238000,154.8750,9,71.17,-9.86,3.46
21.248000,-149.8750,9,71.17,-9.86,3.46
21.258000,195.3750,9,71.17,-9.86,3.46
21.268000,244.6250,9,71.17,-9.86,3.46
21.278000,-786.3750,9,71.17,-9.86,3.46
21.288000,-1336.0000,9,71.17,-9.86,3.46
21.298000,-1336.0000,9,71.17,-9.86,3.46
21.308000,768.8750,9,71.17,-9.86,3.46
21.318000,796.5000,9,71.17,-9.86,3.46
21.328000,821.2500,9,71.17,-9.86,3.46
21.338000,841.1250,9,71.17,-9.86,3.46
21.348000,864.2500,9,71.17,-9.86,3.46
21.358000,-1336.2500,9,71.17,-9.86,3.46
21.368000,892.5000,9,71.17,-9.86,3.46
21.378000,-1215.1250,9,71.17,-9.86,3.46
21.388000,865.7500,9,71.17,-9.86,3.46
21.398000,1032.3750,9,71.17,-9.86,3.46
21.408000,-1336.3750,9,71.17,-9.86,3.46
21.418000,1026.1250,9,71.17,-9.86,3.46
21.428000,1026.3750,9,71.17,-9.86,3.46
21.438000,-1336.7500,9,71.17,-9.86,3.46
21.448000,-637.1250,9,71.17,-9.86,3.46
21.458000,-733.7500,9,71.17,-9.86,3.46
21.468000,882.5000,9,71.17,-9.86,3.46
21.478000,-114.2500,9,71.17,-9.86,3.46
21.488000,993.6250,9,71.17,-9.86,3.46
21.498000,1025.2500,9,71.17,-9.86,3.46
21.508000,1026.0000,9,71.17,-9.86,3.46
21.518000,1027.0000,9,71.17,-9.86,3.46
21.528000,1030.7500,9,71.17,-9.86,3.46
21.538000,1034.3750,9,71.17,-9.86,3.46
21.548000,1042.1250,9,71.17,-9.86,3.46
21.558000,1036.2500,9,71.17,-9.86,3.46
21.568000,1036.7500,9,71.17,-9.86,3.46
21.578000,1036.6250,9,71.17,-9.86,3.46
21.588000,-1336.5000,9,71.17,-9.86,3.46
21.598000,1035.2500,9,71.17,-9.86,3.46
21.608000,-1335.7500,9,71.17,-9.86,3.46
21.618000,1037.5000,9,71.17,-9.86,3.46
21.628000,-96.5000,9,71.17,-9.86,3.46
21.638000,-105.7500,9,71.17,-9.86,3.46
21.648000,-737.8750,9,71.17,-9.86,3.46
21.658000,-798.0000,9,71.17,-9.86,3.46
21.668000,-1336.0000,9,71.17,-9.86,3.46
21.678000,1032.1250,9,71.17,-9.86,3.46
21.688000,-1336.5000,9,71.17,-9.86,3.46
21.698000,1032.1250,9,71.17,-9.86,3.46
21.708000,-1336.6250,9,71.17,-9.86,3.46
21.718000,1031.0000,9,71.17,-9.86,3.46
21.728000,-1336.6250,9,71.17,-9.86,3.46
21.738000,1030.6250,9,71.17,-9.86,3.46
21.748000,1031.3750,9,71.17,-9.86,3.46
21.758000,-338.7500,9,71.17,-9.86,3.46
21.768000,334.2500,9,71.17,-9.86,3.46
21.778000,-1222.1250,9,71.17,-9.86,3.46
21.788000,-973.0000,9,71.17,-9.86,3.46
21.798000,-1341.1250,9,71.17,-9.86,3.46
21.808000,-1336.7500,9,71.17,-9.86,3.46
21.818000,1026.5000,9,71.17,-9.86,3.46
21.828000,-1336.0000,9,71.17,-9.86,3.46
21.838000,1025.2500,9,71.17,-9.86,3.46
21.848000,-1336.6250,9,71.17,-9.86,3.46
21.858000,1025.1250,9,71.17,-9.86,3.46
21.868000,-1335.5000,9,71.17,-9.86,3.46
21.878000,-780.8750,9,71.17,-9.86,3.46
21.888000,-1336.3750,9,71.17,-9.86,3.46
21.898000,-1335.6250,9,71.17,-9.86,3.46
21.908000,-1335.8750,9,71.17,-9.86,3.46
21.918000,-1337.7500,9,71.17,-9.86,3.46
21.928000,-1336.0000,9,71.17,-9.86,3.46
21.938000,-1335.1250,9,71.17,-9.86,3.46
21.948000,-632.2500,9,71.17,-9.86,3.46
21.958000,-499.8750,9,71.17,-9.86,3.46
21.968000,1020.2500,9,71.17,-9.86,3.46
21.978000,140.8750,9,71.17,-9.86,3.46
21.988000,1020.6250,9,71.17,-9.86,3.46
21.998000,1018.5000,9,71.17,-9.86,3.46
22.008000,1057.1250,9,71.17,-9.86,3.46
22.018000,1020.8750,9,71.17,-9.86,3.46
22.028000,1024.3750,9,71.17,-9.86,3.46
22.038000,1024.8750,9,71.17,-9.86,3.46
22.048000,1023.1250,9,71.17,-9.86,3.46
22.058000,1022.0000,9,71.17,-9.86,3.46
22.068000,1024.0000,9,71.17,-9.86,3.46
22.078000,1023.7500,9,71.17,-9.86,3.46
22.088000,684.0000,9,71.17,-9.86,3.46
22.098000,1024.5000,9,71.17,-9.86,3.46
22.108000,594.0000,9,71.17,-9.86,3.46
22.118000,1026.8750,9,71.17,-9.86,3.46
22.128000,8.0000,9,71.17,-9.86,3.46
22.138000,1026.6250,9,71.17,-9.86,3.46
22.148000,-490.1250,9,71.17,-9.86,3.46
22.158000,1028.8750,9,71.17,-9.86,3.46
22.168000,886.8750,9,71.17,-9.86,3.46
22.178000,956.1250,9,71.17,-9.86,3.46
22.188000,354.1250,9,71.17,-9.86,3.46
22.198000,55.3750,9,71.17,-9.86,3.46
22.208000,-1164.8750,9,71.17,-9.86,3.46
22.218000,-1337.2500,11,77.72,-6.01,6.10
22.228000,-1045.6250,11,77.72,-6.01,6.10
22.238000,-1336.1250,11,77.72,-6.01,6.10
22.248000,-1340.6250,11,77.72,-6.01,6.10
22.258000,-1337.0000,11,77.72,-6.01,6.10
22.268000,774.6250,11,77.72,-6.01,6.10
22.278000,-1338.2500,11,77.72,-6.01,6.10
22.288000,-770.1250,11,77.72,-6.01,6.10
22.298000,-1336.3750,11,77.72,-6.01,6.10
22.308000,-1339.8750,11,77.72,-6.01,6.10
22.318000,-1337.3750,11,77.72,-6.01,6.10
22.328000,-1336.3750,11,77.72,-6.01,6.10
22.338000,-1336.6250,11,77.72,-6.01,6.10
22.348000,-720.2500,11,77.72,-6.01,6.10
22.358000,-1336.7500,11,77.72,-6.01,6.10
22.368000,-536.0000,11,77.72,-6.01,6.10
22.378000,-1335.3750,11,77.72,-6.01,6.10
22.388000,1018.2500,11,77.72,-6.01,6.10
22.398000,-1232.5000,11,77.72,-6.01,6.10
22.408000,1023.6250,11,77.72,-6.01,6.10
22.418000,1019.6250,11,77.72,-6.01,6.10
22.428000,1019.5000,11,77.72,-6.01,6.10
22.438000,1021.0000,11,77.72,-6.01,6.10
22.448000,1018.2500,11,77.72,-6.01,6.10
22.458000,1022.3750,11,77.72,-6.01,6.10
22.468000,1022.0000,11,77.72,-6.01,6.10
22.478000,966.3750,11,77.72,-6.01,6.10
22.488000,1022.3750,11,77.72,-6.01,6.10
22.498000,1026.3750,11,77.72,-6.01,6.10
22.508000,1023.7500,11,77.72,-6.01,6.10
22.518000,-1337.1250,11,77.72,-6.01,6.10
22.528000,1024.6250,11,77.72,-6.01,6.10
22.538000,-1335.2500,11,77.72,-6.01,6.10
22.548000,1024.3750,11,77.72,-6.01,6.10
22.558000,-1335.8750,11,77.72,-6.01,6.10
22.568000,1023.3750,11,77.72,-6.01,6.10
22.578000,-1337.5000,11,77.72,-6.01,6.10
22.588000,1023.0000,11,77.72,-6.01,6.10
22.598000,-1336.3750,11,77.72,-6.01,6.10
22.608000,1023.5000,11,77.72,-6.01,6.10
22.618000,-1337.0000,11,77.72,-6.01,6.10
22.628000,1023.5000,11,77.72,-6.01,6.10
22.638000,-1336.6250,11,77.72,-6.01,6.10
22.648000,1023.0000,11,77.72,-6.01,6.10
22.658000,-1336.5000,11,77.72,-6.01,6.10
22.668000,1023.5000,11,77.72,-6.01,6.10
22.678000,-1336.6250,11,77.72,-6.01,6.10
22.688000,1023.5000,11,77.72,-6.01,6.10
22.698000,-1336.2500,11,77.72,-6.01,6.10
22.708000,1022.7500,11,77.72,-6.01,6.10
22.718000,-1336.8750,11,77.72,-6.01,6.10
22.728000,1024.3750,11,77.72,-6.01,6.10
22.738000,1024.8750,11,77.72,-6.01,6.10
22.748000,1024.5000,11,77.72,-6.01,6.10
22.758000,-1338.7500,11,77.72,-6.01,6.10
22.768000,1025.2500,11,77.72,-6.01,6.10
22.778000,-1337.0000,11,77.72,-6.01,6.10
22.788000,1026.1250,11,77.72,-6.01,6.10
22.798000,-1335.3750,11,77.72,-6.01,6.10
22.808000,1025.1250,11,77.72,-6.01,6.10
22.818000,-1336.7500,11,77.72,-6.01,6.10
22.828000,1029.0000,11,77.72,-6.01,6.10
22.838000,1031.5000,11,77.72,-6.01,6.10
22.848000,1027.5000,11,77.72,-6.01,6.10
22.858000,-773.7500,11,77.72,-6.01,6.10
22.868000,1027.5000,11,77.72,-6.01,6.10
22.878000,-1335.6250,11,77.72,-6.01,6.10
22.888000,1027.7500,11,77.72,-6.01,6.10
22.898000,-1337.5000,11,77.72,-6.01,6.10
22.908000,1028.8750,11,77.72,-6.01,6.10
22.918000,-1337.2500,11,77.72,-6.01,6.10
22.928000,1028.6250,11,77.72,-6.01,6.10
22.938000,-1335.6250,11,77.72,-6.01,6.10
22.948000,1029.1250,11,77.72,-6.01,6.10
22.958000,-1336.7500,11,77.72,-6.01,6.10
22.968000,1028.6250,11,77.72,-6.01,6.10
22.978000,-1336.3750,11,77.72,-6.01,6.10
22.988000,1027.8750,11,77.72,-6.01,6.10
22.998000,-1336.8750,11,77.72,-6.01,6.10
23.008000,1027.5000,11,77.72,-6.01,6.10
23.018000,-1336.3750,11,77.72,-6.01,6.10
23.028000,1029.0000,11,77.72,-6.01,6.10
23.038000,-1337.7500,11,77.72,-6.01,6.10
23.048000,1027.6250,11,77.72,-6.01,6.10
23.058000,-1336.2500,11,77.72,-6.01,6.10
23.068000,1028.2500,11,77.72,-6.01,6.10
23.078000,-1337.1250,11,77.72,-6.01,6.10
23.088000,1028.3750,11,77.72,-6.01,6.10
23.098000,-1338.7500,11,77.72,-6.01,6.10
23.108000,1027.5000,11,77.72,-6.01,6.10
23.118000,-1337.6250,11,77.72,-6.01,6.10
23.128000,1028.2500,11,77.72,-6.01,6.10
23.138000,-1339.1250,11,77.72,-6.01,6.10
23.148000,1028.1250,11,77.72,-6.01,6.10
23.158000,-1113.8750,11,77.72,-6.01,6.10
23.168000,1027.5000,11,77.72,-6.01,6.10
23.178000,-1324.6250,11,77.72,-6.01,6.10
23.188000,1028.1250,11,77.72,-6.01,6.10
23.198000,-1335.2500,11,77.72,-6.01,6.10
23.208000,-1111.5000,11,77.72,-6.01,6.10
23.218000,-1335.7500,11,77.72,-6.01,6.10
23.228000,-1337.0000,11,77.72,-6.01,6.10
23.238000,-1336.6250,11,77.72,-6.01,6.10
23.248000,-1337.6250,11,77.72,-6.01,6.10
23.258000,-1335.7500,11,77.72,-6.01,6.10
23.268000,-1336.7500,11,77.72,-6.01,6.10
23.278000,-1336.3750,11,77.72,-6.01,6.10
23.288000,-1336.2500,11,77.72,-6.01,6.10
23.298000,-1335.8750,11,77.72,-6.01,6.10
23.308000,-1335.3750,11,77.72,-6.01,6.10
23.318000,-1336.7500,11,77.72,-6.01,6.10
23.328000,-1336.0000,11,77.72,-6.01,6.10
23.338000,-1336.2500,11,77.72,-6.01,6.10
23.348000,-1336.0000,11,77.72,-6.01,6.10
23.358000,-1312.3750,11,77.72,-6.01,6.10
23.368000,-1336.2500,11,77.72,-6.01,6.10
23.378000,-723.5000,11,77.72,-6.01,6.10
23.388000,-1267.2500,11,77.72,-6.01,6.10
23.398000,334.7500,11,77.72,-6.01,6.10
23.408000,-1337.7500,11,77.72,-6.01,6.10
23.418000,1025.1250,11,77.72,-6.01,6.10
23.428000,-81.8750,11,77.72,-6.01,6.10
23.438000,1041.5000,11,77.72,-6.01,6.10
23.448000,1006.3750,11,77.72,-6.01,6.10
23.458000,1020.2500,11,77.72,-6.01,6.10
23.468000,1021.5000,11,77.72,-6.01,6.10
23.478000,1023.3750,11,77.72,-6.01,6.10
23.488000,1019.5000,11,77.72,-6.01,6.10
23.498000,1021.1250,11,77.72,-6.01,6.10
23.508000,1021.1250,11,77.72,-6.01,6.10
23.518000,1020.5000,11,77.72,-6.01,6.10
23.528000,1021.5000,11,77.72,-6.01,6.10
23.538000,1021.2500,11,77.72,-6.01,6.10
23.548000,946.0000,11,77.72,-6.01,6.10
23.558000,1022.7500,11,77.72,-6.01,6.10
23.568000,-1095.7500,11,77.72,-6.01,6.10
23.578000,1022.7500,11,77.72,-6.01,6.10
23.588000,-1240.7500,11,77.72,-6.01,6.10
23.598000,1023.5000,11,77.72,-6.01,6.10
23.608000,-1337.2500,11,77.72,-6.01,6.10
23.618000,1023.3750,11,77.72,-6.01,6.10
23.628000,-1337.3750,11,77.72,-6.01,6.10
23.638000,1024.1250,11,77.72,-6.01,6.10
23.648000,-1336.5000,11,77.72,-6.01,6.10
23.658000,1024.3750,11,77.72,-6.01,6.10
23.668000,-1336.2500,11,77.72,-6.01,6.10
23.678000,1023.7500,11,77.72,-6.01,6.10
23.688000,-1336.6250,11,77.72,-6.01,6.10
23.698000,1022.8750,11,77.72,-6.01,6.10
23.708000,-1336.0000,11,77.72,-6.01,6.10
23.718000,1024.3750,11,77.72,-6.01,6.10
23.728000,-1335.6250,11,77.72,-6.01,6.10
23.738000,1023.1250,11,77.72,-6.01,6.10
23.748000,-1336.8750,11,77.72,-6.01,6.10
23.758000,1023.2500,11,77.72,-6.01,6.10
23.768000,-1336.0000,11,77.72,-6.01,6.10
23.778000,1022.6250,11,77.72,-6.01,6.10
23.788000,-1314.6250,11,77.72,-6.01,6.10
23.798000,1025.0000,11,77.72,-6.01,6.10
23.808000,-1335.8750,11,77.72,-6.01,6.10
23.818000,1023.6250,11,77.72,-6.01,6.10
23.828000,-295.6250,11,77.72,-6.01,6.10
23.838000,1024.8750,11,77.72,-6.01,6.10
23.848000,-1337.5000,11,77.72,-6.01,6.10
23.858000,1025.5000,11,77.72,-6.01,6.10
23.868000,-1337.1250,11,77.72,-6.01,6.10
23.878000,1025.8750,11,77.72,-6.01,6.10
23.888000,-1335.7500,11,77.72,-6.01,6.10
23.898000,1026.8750,11,77.72,-6.01,6.10
23.908000,-1336.8750,11,77.72,-6.01,6.10
23.918000,1027.1250,11,77.72,-6.01,6.10
23.928000,-1337.1250,11,77.72,-6.01,6.10
23.938000,1026.8750,11,77.72,-6.01,6.10
23.948000,-1335.8750,11,77.72,-6.01,6.10
23.958000,1027.1250,11,77.72,-6.01,6.10
23.968000,-1336.6250,11,77.72,-6.01,6.10
23.978000,1027.6250,11,77.72,-6.01,6.10
23.988000,-400.6250,11,77.72,-6.01,6.10
23.998000,1027.5000,11,77.72,-6.01,6.10
24.008000,-1336.5000,11,77.72,-6.01,6.10
24.018000,1027.2500,11,77.72,-6.01,6.10
24.028000,1027.7500,11,77.72,-6.01,6.10
24.038000,-1336.7500,11,77.72,-6.01,6.10
24.048000,540.7500,11,77.72,-6.01,6.10
24.058000,-1335.8750,11,77.72,-6.01,6.10
24.068000,1026.8750,11,77.72,-6.01,6.10
24.078000,-101.2500,11,77.72,-6.01,6.10
24.088000,-1336.7500,11,77.72,-6.01,6.10
24.098000,1031.0000,11,77.72,-6.01,6.10
24.108000,1027.0000,11,77.72,-6.01,6.10
24.118000,299.6250,11,77.72,-6.01,6.10
24.128000,-1315.2500,11,77.72,-6.01,6.10
24.138000,1026.0000,11,77.72,-6.01,6.10
24.148000,-1302.2500,11,77.72,-6.01,6.10
24.158000,1026.5000,11,77.72,-6.01,6.10
24.168000,-1270.1250,11,77.72,-6.01,6.10
24.178000,1027.3750,11,77.72,-6.01,6.10
24.188000,-1336.5000,11,77.72,-6.01,6.10
24.198000,1026.7500,11,77.72,-6.01,6.10
24.208000,1027.0000,11,77.72,-6.01,6.10
24.218000,1027.2500,11,77.72,-6.01,6.10
24.228000,-1337.2500,11,77.72,-6.01,6.10
24.238000,1026.0000,11,77.72,-6.01,6.10
24.248000,-1336.0000,11,77.72,-6.01,6.10
24.258000,1028.3750,11,77.72,-6.01,6.10
24.268000,-1336.2500,11,77.72,-6.01,6.10
24.278000,1027.7500,11,77.72,-6.01,6.10
24.288000,1026.0000,11,77.72,-6.01,6.10
24.298000,-1336.5000,11,77.72,-6.01,6.10
24.308000,1026.0000,11,77.72,-6.01,6.10
24.318000,-1337.3750,11,77.72,-6.01,6.10
24.328000,1026.3750,11,77.72,-6.01,6.10
24.338000,-988.6250,11,77.72,-6.01,6.10
24.348000,1026.2500,11,77.72,-6.01,6.10
24.358000,-1335.6250,11,77.72,-6.01,6.10
24.368000,1026.5000,11,77.72,-6.01,6.10
24.378000,-1336.8750,11,77.72,-6.01,6.10
24.388000,1025.2500,11,77.72,-6.01,6.10
24.398000,-1337.2500,11,77.72,-6.01,6.10
24.408000,1025.2500,11,77.72,-6.01,6.10
24.418000,-1336.0000,11,77.72,-6.01,6.10
24.428000,1025.8750,11,77.72,-6.01,6.10
24.438000,-1335.7500,11,77.72,-6.01,6.10
24.448000,1025.8750,11,77.72,-6.01,6.10
24.458000,-1337.2500,11,77.72,-6.01,6.10
24.468000,1026.1250,11,77.72,-6.01,6.10
24.478000,-1336.7500,11,77.72,-6.01,6.10
24.488000,232.1250,11,77.72,-6.01,6.10
24.498000,-1319.1250,11,77.72,-6.01,6.10
24.508000,1027.6250,11,77.72,-6.01,6.10
24.518000,925.0000,11,77.72,-6.01,6.10
24.528000,1026.2500,11,77.72,-6.01,6.10
24.538000,1026.2500,11,77.72,-6.01,6.10
24.548000,-1335.8750,11,77.72,-6.01,6.10
24.558000,-1338.0000,11,77.72,-6.01,6.10
24.568000,-1307.6250,11,77.72,-6.01,6.10
24.578000,451.6250,11,77.72,-6.01,6.10
24.588000,1027.5000,11,77.72,-6.01,6.10
24.598000,1028.2500,11,77.72,-6.01,6.10
24.608000,1027.0000,11,77.72,-6.01,6.10
24.618000,1026.1250,11,77.72,-6.01,6.10
24.628000,1026.2500,11,77.72,-6.01,6.10
24.638000,1025.7500,11,77.72,-6.01,6.10
24.648000,1026.8750,11,77.72,-6.01,6.10
24.658000,1028.1250,11,77.72,-6.01,6.10
24.668000,-854.6250,11,77.72,-6.01,6.10
24.678000,1026.5000,11,77.72,-6.01,6.10
24.688000,-1067.7500,11,77.72,-6.01,6.10
24.698000,775.1250,11,77.72,-6.01,6.10
24.708000,-1337.0000,11,77.72,-6.01,6.10
24.718000,1027.7500,11,77.72,-6.01,6.10
24.728000,-1337.2500,11,77.72,-6.01,6.10
24.738000,1027.0000,11,77.72,-6.01,6.10
24.748000,1027.1250,11,77.72,-6.01,6.10
24.758000,-1336.2500,11,77.72,-6.01,6.10
24.768000,-1335.2500,11,77.72,-6.01,6.10
24.778000,-1336.6250,11,77.72,-6.01,6.10
24.788000,-1337.5000,11,77.72,-6.01,6.10
24.798000,1028.2500,11,77.72,-6.01,6.10
24.808000,-1335.8750,11,77.72,-6.01,6.10
24.818000,1027.8750,11,77.72,-6.01,6.10
24.828000,1027.0000,11,77.72,-6.01,6.10
24.838000,1026.3750,11,77.72,-6.01,6.10
24.848000,-1336.2500,11,77.72,-6.01,6.10
24.858000,1026.3750,11,77.72,-6.01,6.10
24.868000,-1335.5000,11,77.72,-6.01,6.10
24.878000,1026.0000,11,77.72,-6.01,6.10
24.888000,-1335.8750,11,77.72,-6.01,6.10
24.898000,1026.3750,11,77.72,-6.01,6.10
24.908000,-1336.2500,11,77.72,-6.01,6.10
24.918000,1026.2500,11,77.72,-6.01,6.10
24.928000,-1335.5000,11,77.72,-6.01,6.10
24.938000,-1337.7500,11,77.72,-6.01,6.10
24.948000,-1337.8750,11,77.72,-6.01,6.10
24.958000,1027.3750,11,77.72,-6.01,6.10
24.968000,1028.8750,11,77.72,-6.01,6.10
24.978000,1028.5000,11,77.72,-6.01,6.10
24.988000,1026.8750,11,77.72,-6.01,6.10
24.998000,-1335.2500,11,77.72,-6.01,6.10
25.008000,1026.2500,11,77.72,-6.01,6.10
25.018000,1025.8750,11,77.72,-6.01,6.10
25.028000,1026.6250,11,77.72,-6.01,6.10
25.038000,1027.0000,11,77.72,-6.01,6.10
25.048000,1026.5000,11,77.72,-6.01,6.10
25.058000,1027.0000,11,77.72,-6.01,6.10
25.068000,1027.3750,11,77.72,-6.01,6.10
25.078000,-39.1250,11,77.72,-6.01,6.10
25.088000,1029.6250,11,77.72,-6.01,6.10
25.098000,-83.2500,11,77.72,-6.01,6.10
25.108000,1027.0000,11,77.72,-6.01,6.10
25.118000,-1337.0000,11,77.72,-6.01,6.10
25.128000,-1342.1250,11,77.72,-6.01,6.10
25.138000,-1140.3750,11,77.72,-6.01,6.10
25.148000,1026.3750,11,77.72,-6.01,6.10
25.158000,1026.8750,11,77.72,-6.01,6.10
25.168000,736.0000,11,77.72,-6.01,6.10
25.178000,-1336.1250,11,77.72,-6.01,6.10
25.188000,-1336.2500,11,77.72,-6.01,6.10
25.198000,1026.3750,11,77.72,-6.01,6.10
25.208000,-1337.3750,11,77.72,-6.01,6.10
25.218000,278.3750,11,77.72,-6.01,6.10
25.228000,-1336.5000,11,77.72,-6.01,6.10
25.238000,1026.7500,11,77.72,-6.01,6.10
25.248000,-1334.3750,11,77.72,-6.01,6.10
25.258000,1027.1250,11,77.72,-6.01,6.10
25.268000,-1336.0000,11,77.72,-6.01,6.10
25.278000,1027.0000,11,77.72,-6.01,6.10
25.288000,-1335.3750,11,77.72,-6.01,6.10
25.298000,-1336.2500,11,77.72,-6.01,6.10
25.308000,1026.1250,11,77.72,-6.01,6.10
25.318000,-1335.5000,11,77.72,-6.01,6.10
25.328000,1027.2500,11,77.72,-6.01,6.10
25.338000,1027.1250,11,77.72,-6.01,6.10
25.348000,1026.1250,11,77.72,-6.01,6.10
25.358000,1027.0000,11,77.72,-6.01,6.10
25.368000,1026.6250,11,77.72,-6.01,6.10
25.378000,1022.2500,11,77.72,-6.01,6.10
25.388000,-640.7500,11,77.72,-6.01,6.10
25.398000,-1336.0000,11,77.72,-6.01,6.10
25.408000,-860.8750,11,77.72,-6.01,6.10
25.418000,1027.2500,11,77.72,-6.01,6.10
25.428000,-919.3750,11,77.72,-6.01,6.10
25.438000,1028.1250,11,77.72,-6.01,6.10
25.448000,894.6250,11,77.72,-6.01,6.10
25.458000,928.0000,11,77.72,-6.01,6.10
25.468000,1026.8750,11,77.72,-6.01,6.10
25.478000,-1335.5000,11,77.72,-6.01,6.10
25.488000,-1333.3750,11,77.72,-6.01,6.10
25.498000,1029.8750,11,77.72,-6.01,6.10
25.508000,210.7500,11,77.72,-6.01,6.10
25.518000,288.0000,11,77.72,-6.01,6.10
25.528000,-1336.0000,11,77.72,-6.01,6.10
25.538000,1027.7500,11,77.72,-6.01,6.10
25.548000,-1280.3750,11,77.72,-6.01,6.10
25.558000,1027.0000,11,77.72,-6.01,6.10
25.568000,-1233.5000,11,77.72,-6.01,6.10
25.578000,772.8750,11,77.72,-6.01,6.10
25.588000,-1336.2500,11,77.72,-6.01,6.10
25.598000,-1334.5000,11,77.72,-6.01,6.10
25.608000,1027.6250,11,77.72,-6.01,6.10
25.618000,1027.5000,11,77.72,-6.01,6.10
25.628000,1028.0000,11,77.72,-6.01,6.10
25.638000,1033.0000,11,77.72,-6.01,6.10
25.648000,1029.6250,11,77.72,-6.01,6.10
25.658000,1027.7500,11,77.72,-6.01,6.10
25.668000,1027.0000,11,77.72,-6.01,6.10
25.678000,1027.1250,11,77.72,-6.01,6.10
25.688000,-1336.1250,11,77.72,-6.01,6.10
25.698000,1026.5000,11,77.72,-6.01,6.10
25.708000,-1336.1250,11,77.72,-6.01,6.10
25.718000,1027.3750,11,77.72,-6.01,6.10
25.728000,-1335.1250,11,77.72,-6.01,6.10
25.738000,1027.8750,11,77.72,-6.01,6.10
25.748000,-1158.7500,11,77.72,-6.01,6.10
25.758000,1028.2500,11,77.72,-6.01,6.10
25.768000,-1223.5000,11,77.72,-6.01,6.10
25.778000,1028.5000,11,77.72,-6.01,6.10
25.788000,572.8750,11,77.72,-6.01,6.10
25.798000,1028.8750,11,77.72,-6.01,6.10
25.808000,-1336.7500,11,77.72,-6.01,6.10
25.818000,1030.8750,11,77.72,-6.01,6.10
25.828000,-1336.2500,11,77.72,-6.01,6.10
25.838000,1032.0000,11,77.72,-6.01,6.10
25.848000,-1337.3750,11,77.72,-6.01,6.10
25.858000,1027.6250,11,77.72,-6.01,6.10
25.868000,-1336.8750,11,77.72,-6.01,6.10
25.878000,1027.5000,11,77.72,-6.01,6.10
25.888000,1029.1250,11,77.72,-6.01,6.10
25.898000,1028.5000,11,77.72,-6.01,6.10
25.908000,-1335.5000,11,77.72,-6.01,6.10
25.918000,1029.0000,11,77.72,-6.01,6.10
25.928000,-1337.1250,11,77.72,-6.01,6.10
25.938000,1029.2500,11,77.72,-6.01,6.10
25.948000,-1336.5000,11,77.72,-6.01,6.10
25.958000,1028.8750,11,77.72,-6.01,6.10
25.968000,-1336.7500,11,77.72,-6.01,6.10
25.978000,36.1250,11,77.72,-6.01,6.10
25.988000,1029.2500,11,77.72,-6.01,6.10
25.998000,971.3750,11,77.72,-6.01,6.10
26.008000,-797.7500,11,77.72,-6.01,6.10
26.018000,256.3750,11,77.72,-6.01,6.10
26.028000,-985.5000,11,77.72,-6.01,6.10
26.038000,-620.2500,11,77.72,-6.01,6.10
26.048000,-104.0000,11,77.72,-6.01,6.10
26.058000,949.7500,11,77.72,-6.01,6.10
26.068000,-1153.8750,11,77.72,-6.01,6.10
26.078000,-1337.1250,11,77.72,-6.01,6.10
26.088000,-1140.0000,11,77.72,-6.01,6.10
26.098000,-1336.8750,11,77.72,-6.01,6.10
26.108000,-1336.3750,11,77.72,-6.01,6.10
26.118000,-1337.6250,11,77.72,-6.01,6.10
26.128000,-1336.0000,11,77.72,-6.01,6.10
26.138000,-1336.3750,11,77.72,-6.01,6.10
26.148000,-1337.0000,11,77.72,-6.01,6.10
26.158000,-1337.3750,11,77.72,-6.01,6.10
26.168000,-1336.7500,11,77.72,-6.01,6.10
26.178000,-1337.1250,11,77.72,-6.01,6.10
26.188000,970.1250,11,77.72,-6.01,6.10
26.198000,-1319.8750,11,77.72,-6.01,6.10
26.208000,1025.2500,11,77.72,-6.01,6.10
26.218000,-1093.5000,11,77.72,-6.01,6.10
26.228000,1021.7500,11,77.72,-6.01,6.10
26.238000,-974.0000,11,77.72,-6.01,6.10
26.248000,1022.1250,11,77.72,-6.01,6.10
26.258000,-761.3750,13,100.76,-5.20,6.79
26.268000,1022.1250,13,100.76,-5.20,6.79
26.278000,-1337.3750,13,100.76,-5.20,6.79
26.288000,1021.8750,13,100.76,-5.20,6.79
26.298000,-1337.2500,13,100.76,-5.20,6.79
26.308000,1020.8750,13,100.76,-5.20,6.79
26.318000,-1338.0000,13,100.76,-5.20,6.79
26.328000,1021.1250,13,100.76,-5.20,6.79
26.338000,-1336.8750,13,100.76,-5.20,6.79
26.348000,1021.0000,13,100.76,-5.20,6.79
26.358000,-1336.1250,13,100.76,-5.20,6.79
26.368000,1022.0000,13,100.76,-5.20,6.79
26.378000,-1337.0000,13,100.76,-5.20,6.79
26.388000,1021.6250,13,100.76,-5.20,6.79
26.398000,-1336.5000,13,100.76,-5.20,6.79
26.408000,1022.6250,13,100.76,-5.20,6.79
26.418000,-1336.7500,13,100.76,-5.20,6.79
26.428000,1022.3750,13,100.76,-5.20,6.79
26.438000,-1337.0000,13,100.76,-5.20,6.79
26.448000,1023.3750,13,100.76,-5.20,6.79
26.458000,-1336.8750,13,100.76,-5.20,6.79
26.468000,1021.2500,13,100.76,-5.20,6.79
26.478000,-1336.7500,13,100.76,-5.20,6.79
26.488000,1022.5000,13,100.76,-5.20,6.79
26.498000,-1337.0000,13,100.76,-5.20,6.79
26.508000,1023.6250,13,100.76,-5.20,6.79
26.518000,-1336.2500,13,100.76,-5.20,6.79
26.528000,1023.1250,13,100.76,-5.20,6.79
26.538000,-1337.5000,13,100.76,-5.20,6.79
26.548000,1022.3750,13,100.76,-5.20,6.79
26.558000,-1337.5000,13,100.76,-5.20,6.79
26.568000,1022.6250,13,100.76,-5.20,6.79
26.578000,-1337.0000,13,100.76,-5.20,6.79
26.588000,1021.8750,13,100.76,-5.20,6.79
26.598000,-1337.3750,13,100.76,-5.20,6.79
26.608000,1023.7500,13,100.76,-5.20,6.79
26.618000,-1335.7500,13,100.76,-5.20,6.79
26.628000,1022.5000,13,100.76,-5.20,6.79
26.638000,-1337.7500,13,100.76,-5.20,6.79
26.648000,1022.7500,13,100.76,-5.20,6.79
26.658000,-1335.6250,13,100.76,-5.20,6.79
26.668000,1022.8750,13,100.76,-5.20,6.79
26.678000,-1337.2500,13,100.76,-5.20,6.79
26.688000,1023.8750,13,100.76,-5.20,6.79
26.698000,-1336.0000,13,100.76,-5.20,6.79
26.708000,1023.1250,13,100.76,-5.20,6.79
26.718000,-1336.2500,13,100.76,-5.20,6.79
26.728000,1022.5000,13,100.76,-5.20,6.79
26.738000,-1337.3750,13,100.76,-5.20,6.79
26.748000,1024.0000,13,100.76,-5.20,6.79
26.758000,-1337.0000,13,100.76,-5.20,6.79
26.768000,1025.0000,13,100.76,-5.20,6.79
26.778000,-1338.1250,13,100.76,-5.20,6.79
26.788000,1024.7500,13,100.76,-5.20,6.79
26.798000,-1336.5000,13,100.76,-5.20,6.79
26.808000,1024.8750,13,100.76,-5.20,6.79
26.818000,-1337.2500,13,100.76,-5.20,6.79
26.828000,1024.1250,13,100.76,-5.20,6.79
26.838000,-1336.0000,13,100.76,-5.20,6.79
26.848000,1024.6250,13,100.76,-5.20,6.79
26.858000,-1337.1250,13,100.76,-5.20,6.79
26.868000,1024.7500,13,100.76,-5.20,6.79
26.878000,-1337.3750,13,100.76,-5.20,6.79
26.888000,1025.5000,13,100.76,-5.20,6.79
26.898000,-1336.7500,13,100.76,-5.20,6.79
26.908000,1025.6250,13,100.76,-5.20,6.79
26.918000,-1336.1250,13,100.76,-5.20,6.79
26.928000,1025.1250,13,100.76,-5.20,6.79
26.938000,-1336.6250,13,100.76,-5.20,6.79
26.948000,1024.7500,13,100.76,-5.20,6.79
26.958000,-1337.5000,13,100.76,-5.20,6.79
26.968000,1025.5000,13,100.76,-5.20,6.79
26.978000,-1336.0000,13,100.76,-5.20,6.79
26.988000,1025.3750,13,100.76,-5.20,6.79
26.998000,-1337.2500,13,100.76,-5.20,6.79
27.008000,1025.0000,13,100.76,-5.20,6.79
27.018000,-1323.2500,13,100.76,-5.20,6.79
27.028000,1025.7500,13,100.76,-5.20,6.79
27.038000,-1338.3750,13,100.76,-5.20,6.79
27.048000,1026.2500,13,100.76,-5.20,6.79
27.058000,-1333.5000,13,100.76,-5.20,6.79
27.068000,1027.0000,13,100.76,-5.20,6.79
27.078000,-1334.8750,13,100.76,-5.20,6.79
27.088000,1026.1250,13,100.76,-5.20,6.79
27.098000,-1338.8750,13,100.76,-5.20,6.79
27.108000,1026.6250,13,100.76,-5.20,6.79
27.118000,-65.8750,13,100.76,-5.20,6.79
27.128000,1026.5000,13,100.76,-5.20,6.79
27.138000,-82.2500,13,100.76,-5.20,6.79
27.148000,1026.5000,13,100.76,-5.20,6.79
27.158000,-368.8750,13,100.76,-5.20,6.79
27.168000,1026.3750,13,100.76,-5.20,6.79
27.178000,-543.0000,13,100.76,-5.20,6.79
27.188000,1027.6250,13,100.76,-5.20,6.79
27.198000,-652.6250,13,100.76,-5.20,6.79
27.208000,1028.5000,13,100.76,-5.20,6.79
27.218000,-667.6250,13,100.76,-5.20,6.79
27.228000,1027.3750,13,100.76,-5.20,6.79
27.238000,1008.6250,13,100.76,-5.20,6.79
27.248000,1028.2500,13,100.76,-5.20,6.79
27.258000,1015.0000,13,100.76,-5.20,6.79
27.268000,1028.2500,13,100.76,-5.20,6.79
27.278000,1009.6250,13,100.76,-5.20,6.79
27.288000,457.0000,13,100.76,-5.20,6.79
27.298000,980.8750,13,100.76,-5.20,6.79
27.308000,419.8750,13,100.76,-5.20,6.79
27.318000,952.3750,13,100.76,-5.20,6.79
27.328000,375.8750,13,100.76,-5.20,6.79
27.338000,1026.7500,13,100.76,-5.20,6.79
27.348000,336.8750,13,100.76,-5.20,6.79
27.358000,1026.8750,13,100.76,-5.20,6.79
27.368000,358.7500,13,100.76,-5.20,6.79
27.378000,1027.1250,13,100.76,-5.20,6.79
27.388000,-1297.5000,13,100.76,-5.20,6.79
27.398000,1027.5000,13,100.76,-5.20,6.79
27.408000,-1312.2500,13,100.76,-5.20,6.79
27.418000,1027.2500,13,100.76,-5.20,6.79
27.428000,-1335.6250,13,100.76,-5.20,6.79
27.438000,1027.1250,13,100.76,-5.20,6.79
27.448000,-1337.0000,13,100.76,-5.20,6.79
27.458000,1027.7500,13,100.76,-5.20,6.79
27.468000,-1336.6250,13,100.76,-5.20,6.79
27.478000,1026.3750,13,100.76,-5.20,6.79
27.488000,-1336.5000,13,100.76,-5.20,6.79
27.498000,1027.0000,13,100.76,-5.20,6.79
27.508000,-1336.1250,13,100.76,-5.20,6.79
27.518000,1026.1250,13,100.76,-5.20,6.79
27.528000,-1336.0000,13,100.76,-5.20,6.79
27.538000,1026.8750,13,100.76,-5.20,6.79
27.548000,-1336.7500,13,100.76,-5.20,6.79
27.558000,1026.8750,13,100.76,-5.20,6.79
27.568000,-1336.1250,13,100.76,-5.20,6.79
27.578000,1026.2500,13,100.76,-5.20,6.79
27.588000,-1336.5000,13,100.76,-5.20,6.79
27.598000,1027.0000,13,100.76,-5.20,6.79
27.608000,-1336.7500,13,100.76,-5.20,6.79
27.618000,1026.8750,13,100.76,-5.20,6.79
27.628000,-1335.8750,13,100.76,-5.20,6.79
27.638000,1026.2500,13,100.76,-5.20,6.79
27.648000,-1336.5000,13,100.76,-5.20,6.79
27.658000,1027.0000,13,100.76,-5.20,6.79
27.668000,-1336.3750,13,100.76,-5.20,6.79
27.678000,1026.3750,13,100.76,-5.20,6.79
27.688000,-1335.6250,13,100.76,-5.20,6.79
27.698000,1026.5000,13,100.76,-5.20,6.79
27.708000,-1336.5000,13,100.76,-5.20,6.79
27.718000,1025.8750,13,100.76,-5.20,6.79
27.728000,1028.0000,13,100.76,-5.20,6.79
27.738000,1027.5000,13,100.76,-5.20,6.79
27.748000,1028.3750,13,100.76,-5.20,6.79
27.758000,1028.7500,13,100.76,-5.20,6.79
27.768000,1029.0000,13,100.76,-5.20,6.79
27.778000,1030.8750,13,100.76,-5.20,6.79
27.788000,1031.0000,13,100.76,-5.20,6.79
27.798000,1031.3750,13,100.76,-5.20,6.79
27.808000,1033.0000,13,100.76,-5.20,6.79
27.818000,1033.6250,13,100.76,-5.20,6.79
27.828000,1034.6250,13,100.76,-5.20,6.79
27.838000,1035.1250,13,100.76,-5.20,6.79
27.848000,1036.0000,13,100.76,-5.20,6.79
27.858000,1035.5000,13,100.76,-5.20,6.79
27.868000,1037.7500,13,100.76,-5.20,6.79
27.878000,1037.0000,13,100.76,-5.20,6.79
27.888000,1038.8750,13,100.76,-5.20,6.79
27.898000,1038.1250,13,100.76,-5.20,6.79
27.908000,1039.6250,13,100.76,-5.20,6.79
27.918000,1039.8750,13,100.76,-5.20,6.79
27.928000,-1336.8750,13,100.76,-5.20,6.79
27.938000,1040.2500,13,100.76,-5.20,6.79
27.948000,1041.6250,13,100.76,-5.20,6.79
27.958000,1026.7500,13,100.76,-5.20,6.79
27.968000,1010.3750,13,100.76,-5.20,6.79
27.978000,988.1250,13,100.76,-5.20,6.79
27.988000,971.6250,13,100.76,-5.20,6.79
27.998000,949.5000,13,100.76,-5.20,6.79
28.008000,933.6250,13,100.76,-5.20,6.79
28.018000,910.3750,13,100.76,-5.20,6.79
28.028000,897.0000,13,100.76,-5.20,6.79
28.038000,876.3750,13,100.76,-5.20,6.79
28.048000,851.2500,13,100.76,-5.20,6.79
28.058000,803.5000,13,100.76,-5.20,6.79
28.068000,-1335.1250,13,100.76,-5.20,6.79
28.078000,904.0000,13,100.76,-5.20,6.79
28.088000,905.5000,13,100.76,-5.20,6.79
28.098000,992.6250,13,100.76,-5.20,6.79
28.108000,1042.2500,13,100.76,-5.20,6.79
28.118000,-764.6250,13,100.76,-5.20,6.79
28.128000,1037.0000,13,100.76,-5.20,6.79
28.138000,1036.3750,13,100.76,-5.20,6.79
28.148000,-1335.7500,13,100.76,-5.20,6.79
28.158000,1036.3750,13,100.76,-5.20,6.79
28.168000,-1128.5000,13,100.76,-5.20,6.79
28.178000,1038.7500,13,100.76,-5.20,6.79
28.188000,919.7500,13,100.76,-5.20,6.79
28.198000,-1336.2500,13,100.76,-5.20,6.79
28.208000,1022.7500,13,100.76,-5.20,6.79
28.218000,-1335.5000,13,100.76,-5.20,6.79
28.228000,1038.2500,13,100.76,-5.20,6.79
28.238000,-1337.8750,13,100.76,-5.20,6.79
28.248000,1037.7500,13,100.76,-5.20,6.79
28.258000,-1333.8750,13,100.76,-5.20,6.79
28.268000,-1334.8750,13,100.76,-5.20,6.79
28.278000,-1337.0000,13,100.76,-5.20,6.79
28.288000,1032.1250,13,100.76,-5.20,6.79
28.298000,-1337.2500,13,100.76,-5.20,6.79
28.308000,-1336.0000,13,100.76,-5.20,6.79
28.318000,1029.0000,13,100.76,-5.20,6.79
28.328000,1039.2500,13,100.76,-5.20,6.79
28.338000,1032.6250,13,100.76,-5.20,6.79
28.348000,896.6250,13,100.76,-5.20,6.79
28.358000,845.5000,13,100.76,-5.20,6.79
28.368000,823.3750,13,100.76,-5.20,6.79
28.378000,803.7500,13,100.76,-5.20,6.79
28.388000,784.2500,13,100.76,-5.20,6.79
28.398000,720.7500,13,100.76,-5.20,6.79
28.408000,699.8750,13,100.76,-5.20,6.79
28.418000,688.3750,13,100.76,-5.20,6.79
28.428000,669.8750,13,100.76,-5.20,6.79
28.438000,657.2500,13,100.76,-5.20,6.79
28.448000,638.7500,13,100.76,-5.20,6.79
28.458000,624.1250,13,100.76,-5.20,6.79
28.468000,609.7500,13,100.76,-5.20,6.79
28.478000,595.8750,13,100.76,-5.20,6.79
28.488000,579.7500,13,100.76,-5.20,6.79
28.498000,567.1250,13,100.76,-5.20,6.79
28.508000,551.6250,13,100.76,-5.20,6.79
28.518000,-1337.5000,13,100.76,-5.20,6.79
28.528000,584.2500,13,100.76,-5.20,6.79
28.538000,-1336.5000,13,100.76,-5.20,6.79
28.548000,696.8750,13,100.76,-5.20,6.79
28.558000,691.8750,13,100.76,-5.20,6.79
28.568000,661.1250,13,100.76,-5.20,6.79
28.578000,520.1250,13,100.76,-5.20,6.79
28.588000,483.6250,13,100.76,-5.20,6.79
28.598000,460.1250,13,100.76,-5.20,6.79
28.608000,-1335.5000,13,100.76,-5.20,6.79
28.618000,-1335.8750,13,100.76,-5.20,6.79
28.628000,706.3750,13,100.76,-5.20,6.79
28.638000,986.2500,13,100.76,-5.20,6.79
28.648000,938.2500,13,100.76,-5.20,6.79
28.658000,911.5000,13,100.76,-5.20,6.79
28.668000,838.7500,13,100.76,-5.20,6.79
28.678000,830.8750,13,100.76,-5.20,6.79
28.688000,774.5000,13,100.76,-5.20,6.79
28.698000,745.3750,13,100.76,-5.20,6.79
28.708000,257.6250,13,100.76,-5.20,6.79
28.718000,-433.6250,13,100.76,-5.20,6.79
28.728000,-51.6250,13,100.76,-5.20,6.79
28.738000,927.3750,13,100.76,-5.20,6.79
28.748000,-1335.3750,13,100.76,-5.20,6.79
28.758000,-1336.2500,13,100.76,-5.20,6.79
28.768000,-1334.6250,13,100.76,-5.20,6.79
28.778000,-1336.6250,13,100.76,-5.20,6.79
28.788000,-1336.1250,13,100.76,-5.20,6.79
28.798000,-1335.1250,13,100.76,-5.20,6.79
28.808000,-1336.3750,13,100.76,-5.20,6.79
28.818000,-1335.6250,13,100.76,-5.20,6.79
28.828000,-1335.8750,13,100.76,-5.20,6.79
28.838000,1025.6250,13,100.76,-5.20,6.79
28.848000,1023.3750,13,100.76,-5.20,6.79
28.858000,1024.8750,13,100.76,-5.20,6.79
28.868000,724.1250,13,100.76,-5.20,6.79
28.878000,385.3750,13,100.76,-5.20,6.79
28.888000,-1335.7500,13,100.76,-5.20,6.79
28.898000,-1338.8750,13,100.76,-5.20,6.79
28.908000,-1336.3750,13,100.76,-5.20,6.79
28.918000,-1336.5000,13,100.76,-5.20,6.79
28.928000,-1336.0000,13,100.76,-5.20,6.79
28.938000,-1335.8750,13,100.76,-5.20,6.79
28.948000,498.8750,13,100.76,-5.20,6.79
28.958000,-1268.3750,13,100.76,-5.20,6.79
28.968000,938.2500,13,100.76,-5.20,6.79
28.978000,-1336.5000,13,100.76,-5.20,6.79
28.988000,1019.2500,13,100.76,-5.20,6.79
28.998000,-1337.0000,13,100.76,-5.20,6.79
29.008000,1018.2500,13,100.76,-5.20,6.79
29.018000,-798.7500,13,100.76,-5.20,6.79
29.028000,-1335.1250,13,100.76,-5.20,6.79
29.038000,845.7500,13,100.76,-5.20,6.79
29.048000,-1336.2500,13,100.76,-5.20,6.79
29.058000,-1258.2500,13,100.76,-5.20,6.79
29.068000,-1337.0000,13,100.76,-5.20,6.79
29.078000,-1335.6250,13,100.76,-5.20,6.79
29.088000,-1336.5000,13,100.76,-5.20,6.79
29.098000,1022.5000,13,100.76,-5.20,6.79
29.108000,-1336.5000,13,100.76,-5.20,6.79
29.118000,1026.8750,13,100.76,-5.20,6.79
29.128000,1021.0000,13,100.76,-5.20,6.79
29.138000,1021.5000,13,100.76,-5.20,6.79
29.148000,1021.8750,13,100.76,-5.20,6.79
29.158000,1021.1250,13,100.76,-5.20,6.79
29.168000,343.3750,13,100.76,-5.20,6.79
29.178000,1024.3750,13,100.76,-5.20,6.79
29.188000,1021.2500,13,100.76,-5.20,6.79
29.198000,-940.6250,13,100.76,-5.20,6.79
29.208000,-1271.7500,13,100.76,-5.20,6.79
29.218000,-765.3750,13,100.76,-5.20,6.79
29.228000,-145.2500,13,100.76,-5.20,6.79
29.238000,-1336.1250,13,100.76,-5.20,6.79
29.248000,-1338.2500,13,100.76,-5.20,6.79
29.258000,1019.7500,13,100.76,-5.20,6.79
29.268000,1019.7500,13,100.76,-5.20,6.79
29.278000,1019.1250,13,100.76,-5.20,6.79
29.288000,1019.3750,13,100.76,-5.20,6.79
29.298000,-1336.2500,13,100.76,-5.20,6.79
29.308000,1017.7500,13,100.76,-5.20,6.79
29.318000,1018.6250,13,100.76,-5.20,6.79
29.328000,-1336.6250,13,100.76,-5.20,6.79
29.338000,1018.3750,13,100.76,-5.20,6.79
29.348000,-1336.8750,13,100.76,-5.20,6.79
29.358000,1015.3750,13,100.76,-5.20,6.79
29.368000,1019.8750,13,100.76,-5.20,6.79
29.378000,1020.5000,13,100.76,-5.20,6.79
29.388000,1019.3750,13,100.76,-5.20,6.79
29.398000,1023.7500,13,100.76,-5.20,6.79
29.408000,-1336.6250,13,100.76,-5.20,6.79
29.418000,1020.8750,13,100.76,-5.20,6.79
29.428000,-1336.1250,13,100.76,-5.20,6.79
29.438000,1020.2500,13,100.76,-5.20,6.79
29.448000,1019.8750,13,100.76,-5.20,6.79
29.458000,423.8750,13,100.76,-5.20,6.79
29.468000,-1338.8750,13,100.76,-5.20,6.79
29.478000,496.2500,13,100.76,-5.20,6.79
29.488000,-1103.0000,13,100.76,-5.20,6.79
29.498000,1018.8750,13,100.76,-5.20,6.79
29.508000,408.0000,13,100.76,-5.20,6.79
29.518000,1019.0000,13,100.76,-5.20,6.79
29.528000,-1336.2500,13,100.76,-5.20,6.79
29.538000,-1336.5000,13,100.76,-5.20,6.79
29.548000,-1336.8750,13,100.76,-5.20,6.79
29.558000,-1336.1250,13,100.76,-5.20,6.79
29.568000,-1314.0000,13,100.76,-5.20,6.79
29.578000,-1300.3750,13,100.76,-5.20,6.79
29.588000,1019.2500,13,100.76,-5.20,6.79
29.598000,-1336.0000,13,100.76,-5.20,6.79
29.608000,1019.1250,13,100.76,-5.20,6.79
29.618000,-1335.8750,13,100.76,-5.20,6.79
29.628000,1020.2500,13,100.76,-5.20,6.79
29.638000,-1336.6250,13,100.76,-5.20,6.79
29.648000,-1335.7500,13,100.76,-5.20,6.79
29.658000,1019.3750,13,100.76,-5.20,6.79
29.668000,-1336.1250,13,100.76,-5.20,6.79
29.678000,1018.7500,13,100.76,-5.20,6.79
29.688000,-1336.8750,13,100.76,-5.20,6.79
29.698000,1019.8750,13,100.76,-5.20,6.79
29.708000,-1337.0000,13,100.76,-5.20,6.79
29.718000,1021.5000,13,100.76,-5.20,6.79
29.728000,868.1250,13,100.76,-5.20,6.79
29.738000,-1234.7500,13,100.76,-5.20,6.79
29.748000,969.5000,13,100.76,-5.20,6.79
29.758000,-1218.1250,13,100.76,-5.20,6.79
29.768000,-449.2500,13,100.76,-5.20,6.79
29.778000,-1079.3750,13,100.76,-5.20,6.79
29.788000,236.5000,13,100.76,-5.20,6.79
29.798000,1019.6250,13,100.76,-5.20,6.79
29.808000,-1336.1250,13,100.76,-5.20,6.79
29.818000,1021.0000,13,100.76,-5.20,6.79
29.828000,-1336.2500,13,100.76,-5.20,6.79
29.838000,1019.6250,13,100.76,-5.20,6.79
29.848000,-1339.7500,13,100.76,-5.20,6.79
29.858000,1021.1250,13,100.76,-5.20,6.79
29.868000,-1336.7500,13,100.76,-5.20,6.79
29.878000,1019.5000,13,100.76,-5.20,6.79
29.888000,1015.3750,13,100.76,-5.20,6.79
29.898000,1021.3750,13,100.76,-5.20,6.79
29.908000,1021.3750,13,100.76,-5.20,6.79
29.918000,-1336.3750,13,100.76,-5.20,6.79
29.928000,1021.1250,13,100.76,-5.20,6.79
29.938000,-1336.6250,13,100.76,-5.20,6.79
29.948000,1019.8750,13,100.76,-5.20,6.79
29.958000,-1328.5000,13,100.76,-5.20,6.79
29.968000,1018.2500,13,100.76,-5.20,6.79
29.978000,-1289.2500,13,100.76,-5.20,6.79
29.988000,1020.1250,13,100.76,-5.20,6.79
29.998000,-1335.7500,13,100.76,-5.20,6.79
30.008000,-1336.3750,13,100.76,-5.20,6.79
30.018000,-1337.2500,13,100.76,-5.20,6.79
30.028000,-1335.6250,13,100.76,-5.20,6.79
30.038000,1021.0000,13,100.76,-5.20,6.79
30.048000,-1336.2500,13,100.76,-5.20,6.79
30.058000,1021.0000,13,100.76,-5.20,6.79
30.068000,-1334.8750,13,100.76,-5.20,6.79
30.078000,1021.5000,13,100.76,-5.20,6.79
30.088000,-1337.1250,13,100.76,-5.20,6.79
30.098000,1021.3750,13,100.76,-5.20,6.79
30.108000,-1336.5000,13,100.76,-5.20,6.79
30.118000,1020.8750,13,100.76,-5.20,6.79
30.128000,-1336.5000,13,100.76,-5.20,6.79
30.138000,1021.2500,13,100.76,-5.20,6.79
30.148000,-1335.8750,13,100.76,-5.20,6.79
30.158000,1021.6250,13,100.76,-5.20,6.79
30.168000,-1337.3750,13,100.76,-5.20,6.79
30.178000,1020.5000,15,89.88,-5.58,7.89
30.188000,-1336.2500,15,89.88,-5.58,7.89
30.198000,1026.8750,15,89.88,-5.58,7.89
30.208000,-1337.0000,15,89.88,-5.58,7.89
30.218000,1021.6250,15,89.88,-5.58,7.89
30.228000,-1337.1250,15,89.88,-5.58,7.89
30.238000,912.2500,15,89.88,-5.58,7.89
30.248000,-1334.2500,15,89.88,-5.58,7.89
30.258000,936.6250,15,89.88,-5.58,7.89
30.268000,-1335.6250,15,89.88,-5.58,7.89
30.278000,987.5000,15,89.88,-5.58,7.89
30.288000,-1338.2500,15,89.88,-5.58,7.89
30.298000,1023.0000,15,89.88,-5.58,7.89
30.308000,-1340.2500,15,89.88,-5.58,7.89
30.318000,1027.2500,15,89.88,-5.58,7.89
30.328000,-1331.3750,15,89.88,-5.58,7.89
30.338000,-156.8750,15,89.88,-5.58,7.89
30.348000,-1335.6250,15,89.88,-5.58,7.89
30.358000,-20.6250,15,89.88,-5.58,7.89
30.368000,-1335.5000,15,89.88,-5.58,7.89
30.378000,-42.7500,15,89.88,-5.58,7.89
30.388000,-1050.3750,15,89.88,-5.58,7.89
30.398000,146.0000,15,89.88,-5.58,7.89
30.408000,-1061.5000,15,89.88,-5.58,7.89
30.418000,313.7500,15,89.88,-5.58,7.89
30.428000,-1126.5000,15,89.88,-5.58,7.89
30.438000,413.7500,15,89.88,-5.58,7.89
30.448000,-1154.0000,15,89.88,-5.58,7.89
30.458000,-1253.8750,15,89.88,-5.58,7.89
30.468000,-1163.6250,15,89.88,-5.58,7.89
30.478000,-1218.8750,15,89.88,-5.58,7.89
30.488000,-1205.7500,15,89.88,-5.58,7.89
30.498000,-1106.5000,15,89.88,-5.58,7.89
30.508000,348.5000,15,89.88,-5.58,7.89
30.518000,-1082.5000,15,89.88,-5.58,7.89
30.528000,266.3750,15,89.88,-5.58,7.89
30.538000,-1053.5000,15,89.88,-5.58,7.89
30.548000,70.7500,15,89.88,-5.58,7.89
30.558000,-1336.6250,15,89.88,-5.58,7.89
30.568000,0.2500,15,89.88,-5.58,7.89
30.578000,-1336.0000,15,89.88,-5.58,7.89
30.588000,-10.3750,15,89.88,-5.58,7.89
30.598000,-1335.6250,15,89.88,-5.58,7.89
30.608000,1027.1250,15,89.88,-5.58,7.89
30.618000,-1336.0000,15,89.88,-5.58,7.89
30.628000,1025.5000,15,89.88,-5.58,7.89
30.638000,-1336.3750,15,89.88,-5.58,7.89
30.648000,1024.2500,15,89.88,-5.58,7.89
30.658000,-1335.8750,15,89.88,-5.58,7.89
30.668000,1010.6250,15,89.88,-5.58,7.89
30.678000,-1335.6250,15,89.88,-5.58,7.89
30.688000,996.2500,15,89.88,-5.58,7.89
30.698000,-1337.1250,15,89.88,-5.58,7.89
30.708000,967.2500,15,89.88,-5.58,7.89
30.718000,-1335.3750,15,89.88,-5.58,7.89
30.728000,1018.7500,15,89.88,-5.58,7.89
30.738000,-1335.5000,15,89.88,-5.58,7.89
30.748000,1018.1250,15,89.88,-5.58,7.89
30.758000,-1336.3750,15,89.88,-5.58,7.89
30.768000,1020.2500,15,89.88,-5.58,7.89
30.778000,-1335.3750,15,89.88,-5.58,7.89
30.788000,1019.8750,15,89.88,-5.58,7.89
30.798000,-1335.7500,15,89.88,-5.58,7.89
30.808000,1019.0000,15,89.88,-5.58,7.89
30.818000,-1335.1250,15,89.88,-5.58,7.89
30.828000,1022.1250,15,89.88,-5.58,7.89
30.838000,-1336.2500,15,89.88,-5.58,7.89
30.848000,1021.0000,15,89.88,-5.58,7.89
30.858000,-1336.0000,15,89.88,-5.58,7.89
30.868000,1017.2500,15,89.88,-5.58,7.89
30.878000,-1335.6250,15,89.88,-5.58,7.89
30.888000,1020.5000,15,89.88,-5.58,7.89
30.898000,-1336.2500,15,89.88,-5.58,7.89
30.908000,1019.5000,15,89.88,-5.58,7.89
30.918000,-1336.1250,15,89.88,-5.58,7.89
30.928000,1018.8750,15,89.88,-5.58,7.89
30.938000,-1335.1250,15,89.88,-5.58,7.89
30.948000,1020.1250,15,89.88,-5.58,7.89
30.958000,-1336.3750,15,89.88,-5.58,7.89
30.968000,1015.8750,15,89.88,-5.58,7.89
30.978000,-1336.1250,15,89.88,-5.58,7.89
30.988000,1017.7500,15,89.88,-5.58,7.89
30.998000,-1337.1250,15,89.88,-5.58,7.89
31.008000,1017.8750,15,89.88,-5.58,7.89
31.018000,-1336.8750,15,89.88,-5.58,7.89
31.028000,1017.1250,15,89.88,-5.58,7.89
31.038000,-1336.2500,15,89.88,-5.58,7.89
31.048000,1018.7500,15,89.88,-5.58,7.89
31.058000,-1336.1250,15,89.88,-5.58,7.89
31.068000,1018.6250,15,89.88,-5.58,7.89
31.078000,-1336.2500,15,89.88,-5.58,7.89
31.088000,1018.7500,15,89.88,-5.58,7.89
31.098000,-1335.0000,15,89.88,-5.58,7.89
31.108000,1017.2500,15,89.88,-5.58,7.89
31.118000,-1336.6250,15,89.88,-5.58,7.89
31.128000,1018.7500,15,89.88,-5.58,7.89
31.138000,-1336.2500,15,89.88,-5.58,7.89
31.148000,1018.7500,15,89.88,-5.58,7.89
31.158000,-1336.1250,15,89.88,-5.58,7.89
31.168000,1018.6250,15,89.88,-5.58,7.89
31.178000,-1337.1250,15,89.88,-5.58,7.89
31.188000,1020.5000,15,89.88,-5.58,7.89
31.198000,-1336.5000,15,89.88,-5.58,7.89
31.208000,1019.6250,15,89.88,-5.58,7.89
31.218000,-1335.6250,15,89.88,-5.58,7.89
31.228000,1019.5000,15,89.88,-5.58,7.89
31.238000,-1335.5000,15,89.88,-5.58,7.89
31.248000,1018.5000,15,89.88,-5.58,7.89
31.258000,-1335.2500,15,89.88,-5.58,7.89
31.268000,1019.1250,15,89.88,-5.58,7.89
31.278000,-1334.8750,15,89.88,-5.58,7.89
31.288000,1020.2500,15,89.88,-5.58,7.89
31.298000,-1335.2500,15,89.88,-5.58,7.89
31.308000,1020.7500,15,89.88,-5.58,7.89
31.318000,-1334.7500,15,89.88,-5.58,7.89
31.328000,1019.6250,15,89.88,-5.58,7.89
31.338000,-1335.2500,15,89.88,-5.58,7.89
31.348000,1020.0000,15,89.88,-5.58,7.89
31.358000,-1335.1250,15,89.88,-5.58,7.89
31.368000,1019.1250,15,89.88,-5.58,7.89
31.378000,-1335.5000,15,89.88,-5.58,7.89
31.388000,1019.2500,15,89.88,-5.58,7.89
31.398000,-1336.8750,15,89.88,-5.58,7.89
31.408000,1019.7500,15,89.88,-5.58,7.89
31.418000,-1338.1250,15,89.88,-5.58,7.89
31.428000,1018.8750,15,89.88,-5.58,7.89
31.438000,-1337.1250,15,89.88,-5.58,7.89
31.448000,1019.7500,15,89.88,-5.58,7.89
31.458000,-1333.5000,15,89.88,-5.58,7.89
31.468000,942.5000,15,89.88,-5.58,7.89
31.478000,-1335.5000,15,89.88,-5.58,7.89
31.488000,976.1250,15,89.88,-5.58,7.89
31.498000,-1332.3750,15,89.88,-5.58,7.89
31.508000,966.6250,15,89.88,-5.58,7.89
31.518000,-1310.0000,15,89.88,-5.58,7.89
31.528000,982.3750,15,89.88,-5.58,7.89
31.538000,-1311.8750,15,89.88,-5.58,7.89
31.548000,1003.5000,15,89.88,-5.58,7.89
31.558000,-1339.6250,15,89.88,-5.58,7.89
31.568000,-581.3750,15,89.88,-5.58,7.89
31.578000,-1335.8750,15,89.88,-5.58,7.89
31.588000,-495.1250,15,89.88,-5.58,7.89
31.598000,-1337.5000,15,89.88,-5.58,7.89
31.608000,-444.3750,15,89.88,-5.58,7.89
31.618000,-1339.0000,15,89.88,-5.58,7.89
31.628000,-247.6250,15,89.88,-5.58,7.89
31.638000,-851.7500,15,89.88,-5.58,7.89
31.648000,-140.0000,15,89.88,-5.58,7.89
31.658000,-971.2500,15,89.88,-5.58,7.89
31.668000,-27.3750,15,89.88,-5.58,7.89
31.678000,-968.2500,15,89.88,-5.58,7.89
31.688000,-1331.2500,15,89.88,-5.58,7.89
31.698000,-973.5000,15,89.88,-5.58,7.89
31.708000,-1319.0000,15,89.88,-5.58,7.89
31.718000,-1052.5000,15,89.88,-5.58,7.89
31.728000,-1292.1250,15,89.88,-5.58,7.89
31.738000,453.2500,15,89.88,-5.58,7.89
31.748000,-1271.1250,15,89.88,-5.58,7.89
31.758000,615.5000,15,89.88,-5.58,7.89
31.768000,-1215.2500,15,89.88,-5.58,7.89
31.778000,588.0000,15,89.88,-5.58,7.89
31.788000,-1336.0000,15,89.88,-5.58,7.89
31.798000,767.0000,15,89.88,-5.58,7.89
31.808000,-1337.0000,15,89.88,-5.58,7.89
31.818000,1020.2500,15,89.88,-5.58,7.89
31.828000,709.1250,15,89.88,-5.58,7.89
31.838000,1017.2500,15,89.88,-5.58,7.89
31.848000,-762.0000,15,89.88,-5.58,7.89
31.858000,1017.5000,15,89.88,-5.58,7.89
31.868000,-1131.2500,15,89.88,-5.58,7.89
31.878000,1023.0000,15,89.88,-5.58,7.89
31.888000,-1335.5000,15,89.88,-5.58,7.89
31.898000,1017.3750,15,89.88,-5.58,7.89
31.908000,-1335.7500,15,89.88,-5.58,7.89
31.918000,1019.3750,15,89.88,-5.58,7.89
31.928000,-1336.0000,15,89.88,-5.58,7.89
31.938000,1021.0000,15,89.88,-5.58,7.89
31.948000,1019.2500,15,89.88,-5.58,7.89
31.958000,1030.0000,15,89.88,-5.58,7.89
31.968000,1020.7500,15,89.88,-5.58,7.89
31.978000,1019.2500,15,89.88,-5.58,7.89
31.988000,225.3750,15,89.88,-5.58,7.89
31.998000,735.8750,15,89.88,-5.58,7.89
32.008000,-1334.5000,15,89.88,-5.58,7.89
32.018000,1022.7500,15,89.88,-5.58,7.89
32.028000,1021.2500,15,89.88,-5.58,7.89
32.038000,907.7500,15,89.88,-5.58,7.89
32.048000,423.0000,15,89.88,-5.58,7.89
32.058000,1020.0000,15,89.88,-5.58,7.89
32.068000,-1336.6250,15,89.88,-5.58,7.89
32.078000,-1335.1250,15,89.88,-5.58,7.89
32.088000,-1335.1250,15,89.88,-5.58,7.89
32.098000,1020.2500,15,89.88,-5.58,7.89
32.108000,-1335.0000,15,89.88,-5.58,7.89
32.118000,1018.6250,15,89.88,-5.58,7.89
32.128000,-1335.7500,15,89.88,-5.58,7.89
32.138000,1017.8750,15,89.88,-5.58,7.89
32.148000,-1334.8750,15,89.88,-5.58,7.89
32.158000,1017.3750,15,89.88,-5.58,7.89
32.168000,-1335.8750,15,89.88,-5.58,7.89
32.178000,-634.7500,15,89.88,-5.58,7.89
32.188000,1019.6250,15,89.88,-5.58,7.89
32.198000,1021.5000,15,89.88,-5.58,7.89
32.208000,1018.8750,15,89.88,-5.58,7.89
32.218000,-1336.5000,15,89.88,-5.58,7.89
32.228000,-1335.2500,15,89.88,-5.58,7.89
32.238000,378.2500,15,89.88,-5.58,7.89
32.248000,-1335.0000,15,89.88,-5.58,7.89
32.258000,1026.5000,15,89.88,-5.58,7.89
32.268000,1019.3750,15,89.88,-5.58,7.89
32.278000,315.3750,15,89.88,-5.58,7.89
32.288000,-1336.5000,15,89.88,-5.58,7.89
32.298000,1020.1250,15,89.88,-5.58,7.89
32.308000,-1335.5000,15,89.88,-5.58,7.89
32.318000,1018.5000,15,89.88,-5.58,7.89
32.328000,-1334.3750,15,89.88,-5.58,7.89
32.338000,1020.0000,15,89.88,-5.58,7.89
32.348000,-1335.7500,15,89.88,-5.58,7.89
32.358000,1018.6250,15,89.88,-5.58,7.89
32.368000,-1336.7500,15,89.88,-5.58,7.89
32.378000,1018.5000,15,89.88,-5.58,7.89
32.388000,-1335.1250,15,89.88,-5.58,7.89
32.398000,1019.8750,15,89.88,-5.58,7.89
32.408000,-1334.8750,15,89.88,-5.58,7.89
32.418000,1018.7500,15,89.88,-5.58,7.89
32.428000,-1335.0000,15,89.88,-5.58,7.89
32.438000,1019.1250,15,89.88,-5.58,7.89
32.448000,-1335.3750,15,89.88,-5.58,7.89
32.458000,-1336.2500,15,89.88,-5.58,7.89
32.468000,1019.0000,15,89.88,-5.58,7.89
32.478000,-977.5000,15,89.88,-5.58,7.89
32.488000,-1336.6250,15,89.88,-5.58,7.89
32.498000,377.5000,15,89.88,-5.58,7.89
32.508000,1020.8750,15,89.88,-5.58,7.89
32.518000,-1335.8750,15,89.88,-5.58,7.89
32.528000,1026.6250,15,89.88,-5.58,7.89
32.538000,1023.1250,15,89.88,-5.58,7.89
32.548000,1023.5000,15,89.88,-5.58,7.89
32.558000,1024.1250,15,89.88,-5.58,7.89
32.568000,985.2500,15,89.88,-5.58,7.89
32.578000,1021.5000,15,89.88,-5.58,7.89
32.588000,44.3750,15,89.88,-5.58,7.89
32.598000,-1330.0000,15,89.88,-5.58,7.89
32.608000,-1336.5000,15,89.88,-5.58,7.89
32.618000,-228.8750,15,89.88,-5.58,7.89
32.628000,-1339.0000,15,89.88,-5.58,7.89
32.638000,1021.8750,15,89.88,-5.58,7.89
32.648000,488.5000,15,89.88,-5.58,7.89
32.658000,1020.8750,15,89.88,-5.58,7.89
32.668000,-1336.5000,15,89.88,-5.58,7.89
32.678000,-1336.3750,15,89.88,-5.58,7.89
32.688000,-1335.6250,15,89.88,-5.58,7.89
32.698000,940.3750,15,89.88,-5.58,7.89
32.708000,-1335.7500,15,89.88,-5.58,7.89
32.718000,-1336.3750,15,89.88,-5.58,7.89
32.728000,1020.8750,15,89.88,-5.58,7.89
32.738000,1022.8750,15,89.88,-5.58,7.89
32.748000,1019.0000,15,89.88,-5.58,7.89
32.758000,1020.6250,15,89.88,-5.58,7.89
32.768000,665.5000,15,89.88,-5.58,7.89
32.778000,-1336.7500,15,89.88,-5.58,7.89
32.788000,-1335.2500,15,89.88,-5.58,7.89
32.798000,-831.6250,15,89.88,-5.58,7.89
32.808000,-1338.2500,15,89.88,-5.58,7.89
32.818000,1022.0000,15,89.88,-5.58,7.89
32.828000,1021.1250,15,89.88,-5.58,7.89
32.838000,-1335.1250,15,89.88,-5.58,7.89
32.848000,1016.0000,15,89.88,-5.58,7.89
32.858000,-1335.6250,15,89.88,-5.58,7.89
32.868000,1017.2500,15,89.88,-5.58,7.89
32.878000,-1335.8750,15,89.88,-5.58,7.89
32.888000,1022.2500,15,89.88,-5.58,7.89
32.898000,-1335.3750,15,89.88,-5.58,7.89
32.908000,-1337.3750,15,89.88,-5.58,7.89
32.918000,1019.1250,15,89.88,-5.58,7.89
32.928000,1019.5000,15,89.88,-5.58,7.89
32.938000,1021.2500,15,89.88,-5.58,7.89
32.948000,107.1250,15,89.88,-5.58,7.89
32.958000,-1335.8750,15,89.88,-5.58,7.89
32.968000,1020.3750,15,89.88,-5.58,7.89
32.978000,-175.0000,15,89.88,-5.58,7.89
32.988000,-1337.3750,15,89.88,-5.58,7.89
32.998000,-1336.0000,15,89.88,-5.58,7.89
33.008000,-1280.5000,15,89.88,-5.58,7.89
33.018000,-1336.7500,15,89.88,-5.58,7.89
33.028000,-1336.2500,15,89.88,-5.58,7.89
33.038000,-1336.1250,15,89.88,-5.58,7.89
33.048000,-1337.1250,15,89.88,-5.58,7.89
