timestamp_s,filtered_mV,loop,hr_bpm,snr_wb_db,snr_qrs_db
0.468000,1026.0000,0,,,
0.478000,184.2500,0,,,
0.488000,1026.0000,0,,,
0.498000,1037.7500,0,,,
0.508000,1026.7500,0,,,
0.518000,-366.0000,0,,,
0.528000,977.0000,0,,,
0.538000,-1312.6250,0,,,
0.548000,1021.5000,0,,,
0.558000,-219.6250,0,,,
0.568000,625.5000,0,,,
0.578000,530.0000,0,,,
0.588000,100.3750,0,,,
0.598000,26.1250,0,,,
0.608000,-337.1250,0,,,
0.618000,-919.2500,0,,,
0.628000,-859.2500,0,,,
0.638000,837.8750,0,,,
0.648000,-775.0000,0,,,
0.658000,628.2500,0,,,
0.668000,-1110.1250,0,,,
0.678000,251.6250,0,,,
0.688000,-1126.5000,0,,,
0.698000,999.3750,0,,,
0.708000,-1082.1250,0,,,
0.718000,1024.1250,0,,,
0.728000,-1033.5000,0,,,
0.738000,1023.2500,0,,,
0.748000,-1326.5000,0,,,
0.758000,1029.6250,0,,,
0.768000,-1327.2500,0,,,
0.778000,692.5000,0,,,
0.788000,-1327.1250,0,,,
0.798000,1018.8750,0,,,
0.808000,-1327.0000,0,,,
0.818000,-1322.2500,0,,,
0.828000,1021.3750,0,,,
0.838000,204.8750,0,,,
0.848000,1027.0000,0,,,
0.858000,-1325.3750,0,,,
0.868000,1021.5000,0,,,
0.878000,-1307.7500,0,,,
0.888000,1023.8750,0,,,
0.898000,-1116.5000,0,,,
0.908000,1020.3750,0,,,
0.918000,-1003.1250,0,,,
0.928000,1023.2500,0,,,
0.938000,1021.6250,0,,,
0.948000,-1211.2500,0,,,
0.958000,1023.7500,0,,,
0.968000,-1293.2500,0,,,
0.978000,1018.1250,0,,,
0.988000,-1267.7500,0,,,
0.998000,1022.1250,0,,,
1.008000,-1330.2500,0,,,
1.018000,1022.3750,0,,,
1.028000,-1327.0000,0,,,
1.038000,1020.2500,0,,,
1.048000,-877.8750,0,,,
1.058000,1023.1250,0,,,
1.068000,-1066.0000,0,,,
1.078000,1020.1250,0,,,
1.088000,-1325.8750,0,,,
1.098000,1020.5000,0,,,
1.108000,-1325.7500,0,,,
1.118000,1024.5000,0,,,
1.128000,-1325.8750,0,,,
1.138000,1022.0000,0,,,
1.148000,-1326.1250,0,,,
1.158000,1028.1250,0,,,
1.168000,-1326.2500,0,,,
1.178000,1023.8750,0,,,
1.188000,-1325.3750,0,,,
1.198000,1016.8750,0,,,
1.208000,-1325.5000,0,,,
1.218000,1022.0000,0,,,
1.228000,-1325.8750,0,,,
1.238000,1021.0000,0,,,
1.248000,-1326.2500,0,,,
1.258000,1023.8750,0,,,
1.268000,-1326.6250,0,,,
1.278000,1022.8750,0,,,
1.288000,-1325.5000,0,,,
1.298000,1020.6250,0,,,
1.308000,-1325.7500,0,,,
1.318000,1020.7500,0,,,
1.328000,-1325.8750,0,,,
1.338000,1024.3750,0,,,
1.348000,-1325.2500,0,,,
1.358000,1029.2500,0,,,
1.368000,-1325.8750,0,,,
1.378000,1029.7500,0,,,
1.388000,-1326.6250,0,,,
1.398000,1023.3750,0,,,
1.408000,-1329.5000,0,,,
1.418000,1020.1250,0,,,
1.428000,-1249.0000,0,,,
1.438000,982.3750,0,,,
1.448000,-1325.2500,0,,,
1.458000,957.3750,0,,,
1.468000,-1328.0000,0,,,
1.478000,1029.1250,0,,,
1.488000,-732.6250,0,,,
1.498000,982.6250,0,,,
1.508000,-802.1250,0,,,
1.518000,1035.5000,0,,,
1.528000,-659.5000,0,,,
1.538000,133.1250,0,,,
1.548000,-798.7500,0,,,
1.558000,71.6250,0,,,
1.568000,-642.5000,0,,,
1.578000,134.3750,0,,,
1.588000,-975.7500,0,,,
1.598000,694.5000,0,,,
1.608000,911.8750,0,,,
1.618000,897.5000,0,,,
1.628000,1025.0000,0,,,
1.638000,761.3750,0,,,
1.648000,901.1250,0,,,
1.658000,-775.5000,0,,,
1.668000,608.5000,0,,,
1.678000,-1163.1250,0,,,
1.688000,-224.8750,0,,,
1.698000,-1219.1250,0,,,
1.708000,871.6250,0,,,
1.718000,-1211.3750,0,,,
1.728000,855.2500,0,,,
1.738000,-1192.7500,0,,,
1.748000,1020.2500,0,,,
1.758000,-1326.5000,0,,,
1.768000,1017.3750,0,,,
1.778000,-1326.5000,0,,,
1.788000,975.1250,0,,,
1.798000,-1325.3750,0,,,
1.808000,851.7500,0,,,
1.818000,-1325.6250,0,,,
1.828000,1019.1250,0,,,
1.838000,-1327.5000,0,,,
1.848000,1019.1250,0,,,
1.858000,-1326.2500,0,,,
1.868000,1022.1250,0,,,
1.878000,-1327.2500,0,,,
1.888000,1021.1250,0,,,
1.898000,-1325.6250,0,,,
1.908000,1020.3750,0,,,
1.918000,-1325.7500,0,,,
1.928000,1024.5000,0,,,
1.938000,-1199.6250,0,,,
1.948000,1023.6250,0,,,
1.958000,-957.8750,0,,,
1.968000,1014.7500,0,,,
1.978000,-903.5000,0,,,
1.988000,1024.1250,0,,,
1.998000,-396.5000,0,,,
2.008000,1023.7500,0,,,
2.018000,-1326.5000,0,,,
2.028000,1018.5000,0,,,
2.038000,-1329.1250,0,,,
2.048000,1019.5000,0,,,
2.058000,-1325.8750,0,,,
2.068000,1020.1250,0,,,
2.078000,-1325.2500,0,,,
2.088000,1027.3750,0,,,
2.098000,-1325.7500,0,,,
2.108000,1025.3750,0,,,
2.118000,-1324.3750,0,,,
2.128000,1022.5000,0,,,
2.138000,-1325.7500,0,,,
2.148000,1020.5000,0,,,
2.158000,-1326.5000,0,,,
2.168000,1024.2500,0,,,
2.178000,-1326.2500,0,,,
2.188000,1024.6250,0,,,
2.198000,-1324.1250,0,,,
2.208000,1023.1250,0,,,
2.218000,-1325.2500,0,,,
2.228000,1018.6250,0,,,
2.238000,-1325.6250,0,,,
2.248000,1022.8750,0,,,
2.258000,-1325.8750,0,,,
2.268000,1018.3750,0,,,
2.278000,-1325.7500,0,,,
2.288000,1020.1250,0,,,
2.298000,-1326.0000,0,,,
2.308000,1029.1250,0,,,
2.318000,-1326.2500,0,,,
2.328000,1023.7500,0,,,
2.338000,-1326.2500,0,,,
2.348000,1019.3750,0,,,
2.358000,-1328.5000,0,,,
2.368000,1030.0000,0,,,
2.378000,-1335.2500,0,,,
2.388000,1016.3750,0,,,
2.398000,-1322.1250,0,,,
2.408000,563.6250,0,,,
2.418000,-1329.0000,0,,,
2.428000,638.1250,0,,,
2.438000,-1322.3750,0,,,
2.448000,681.2500,0,,,
2.458000,-1326.7500,0,,,
2.468000,722.1250,0,,,
2.478000,-889.8750,0,,,
2.488000,774.8750,0,,,
2.498000,-674.2500,0,,,
2.508000,848.7500,0,,,
2.518000,-716.0000,0,,,
2.528000,-380.5000,0,,,
2.538000,-847.3750,0,,,
2.548000,-335.3750,0,,,
2.558000,-1021.8750,0,,,
2.568000,-334.8750,0,,,
2.578000,276.3750,0,,,
2.588000,-180.5000,0,,,
2.598000,467.0000,0,,,
2.608000,6.8750,0,,,
2.618000,588.5000,0,,,
2.628000,-1246.1250,0,,,
2.638000,209.1250,0,,,
2.648000,-1223.1250,0,,,
2.658000,127.6250,0,,,
2.668000,-1162.1250,0,,,
2.678000,1024.1250,0,,,
2.688000,-1104.6250,0,,,
2.698000,1023.0000,0,,,
2.708000,-1141.0000,0,,,
2.718000,1023.7500,0,,,
2.728000,-1324.6250,0,,,
2.738000,1011.0000,0,,,
2.748000,-1324.7500,0,,,
2.758000,1023.6250,0,,,
2.768000,-1325.3750,0,,,
2.778000,1022.0000,0,,,
2.788000,-1326.7500,0,,,
2.798000,1021.0000,0,,,
2.808000,-1325.0000,0,,,
2.818000,1022.1250,0,,,
2.828000,-1325.3750,0,,,
2.838000,1021.7500,0,,,
2.848000,-1325.5000,0,,,
2.858000,1020.3750,0,,,
2.868000,-1323.2500,0,,,
2.878000,1020.8750,0,,,
2.888000,-1323.6250,0,,,
2.898000,1018.7500,0,,,
2.908000,-1324.8750,0,,,
2.918000,1022.7500,0,,,
2.928000,-1328.2500,0,,,
2.938000,1023.6250,0,,,
2.948000,-1325.6250,0,,,
2.958000,1020.7500,0,,,
2.968000,-1323.1250,0,,,
2.978000,1025.0000,0,,,
2.988000,-1325.2500,0,,,
2.998000,1021.0000,0,,,
3.008000,-1325.8750,0,,,
3.018000,1018.8750,0,,,
3.028000,-1327.7500,0,,,
3.038000,1023.0000,0,,,
3.048000,-1331.6250,0,,,
3.058000,1018.1250,0,,,
3.068000,-1321.1250,0,,,
3.078000,1020.2500,0,,,
3.088000,-1328.5000,0,,,
3.098000,1021.5000,0,,,
3.108000,-1335.2500,0,,,
3.118000,1022.8750,0,,,
3.128000,-1331.2500,0,,,
3.138000,1019.0000,0,,,
3.148000,-1329.0000,0,,,
3.158000,1023.2500,0,,,
3.168000,-1287.5000,0,,,
3.178000,1016.8750,0,,,
3.188000,-1328.1250,0,,,
3.198000,1019.3750,0,,,
3.208000,-1265.3750,0,,,
3.218000,1019.5000,0,,,
3.228000,-471.7500,0,,,
3.238000,1020.1250,0,,,
3.248000,-571.6250,0,,,
3.258000,1021.5000,0,,,
3.268000,-575.7500,0,,,
3.278000,1021.1250,0,,,
3.288000,-504.5000,0,,,
3.298000,1020.8750,0,,,
3.308000,-866.8750,0,,,
3.318000,1019.1250,0,,,
3.328000,-1069.1250,0,,,
3.338000,1024.7500,0,,,
3.348000,-836.6250,0,,,
3.358000,1026.7500,0,,,
3.368000,-676.5000,0,,,
3.378000,1025.2500,0,,,
3.388000,-446.5000,0,,,
3.398000,1026.0000,0,,,
3.408000,350.3750,0,,,
3.418000,1024.0000,0,,,
3.428000,1030.1250,0,,,
3.438000,1025.1250,0,,,
3.448000,643.6250,0,,,
3.458000,230.8750,0,,,
3.468000,199.0000,0,,,
3.478000,1028.0000,0,,,
3.488000,1028.1250,0,,,
3.498000,1027.7500,0,,,
3.508000,1028.8750,0,,,
3.518000,1029.1250,0,,,
3.528000,1030.1250,0,,,
3.538000,1030.8750,0,,,
3.548000,1031.3750,0,,,
3.558000,1032.8750,0,,,
3.568000,1032.5000,0,,,
3.578000,1033.3750,0,,,
3.588000,1033.6250,0,,,
3.598000,1035.5000,0,,,
3.608000,1036.5000,0,,,
3.618000,1037.7500,0,,,
3.628000,1035.1250,0,,,
3.638000,1037.2500,0,,,
3.648000,1036.8750,0,,,
3.658000,1040.0000,0,,,
3.668000,1038.7500,0,,,
3.678000,1041.8750,0,,,
3.688000,1039.8750,0,,,
3.698000,1025.6250,0,,,
3.708000,1040.8750,0,,,
3.718000,1018.6250,0,,,
3.728000,1041.1250,0,,,
3.738000,602.1250,0,,,
3.748000,1038.1250,0,,,
3.758000,650.3750,0,,,
3.768000,1008.8750,0,,,
3.778000,892.8750,0,,,
3.788000,971.1250,0,,,
3.798000,903.6250,0,,,
3.808000,937.2500,0,,,
3.818000,887.5000,0,,,
3.828000,899.3750,0,,,
3.838000,774.2500,0,,,
3.848000,866.2500,0,,,
3.858000,793.5000,0,,,
3.868000,833.2500,0,,,
3.878000,745.6250,0,,,
3.888000,798.6250,0,,,
3.898000,703.3750,0,,,
3.908000,766.7500,0,,,
3.918000,720.1250,0,,,
3.928000,735.7500,0,,,
3.938000,663.3750,0,,,
3.948000,704.6250,0,,,
3.958000,619.6250,0,,,
3.968000,674.0000,0,,,
3.978000,577.8750,0,,,
3.988000,592.1250,0,,,
3.998000,582.5000,0,,,
4.008000,515.7500,0,,,
4.018000,396.8750,0,,,
4.028000,455.3750,0,,,
4.038000,415.8750,0,,,
4.048000,388.5000,0,,,
4.058000,333.2500,0,,,
4.068000,312.7500,0,,,
4.078000,238.1250,0,,,
4.088000,203.3750,0,,,
4.098000,211.6250,0,,,
4.108000,200.3750,0,,,
4.118000,177.5000,0,,,
4.128000,163.3750,0,,,
4.138000,145.7500,0,,,
4.148000,-14.8750,0,,,
4.158000,115.1250,0,,,
4.168000,61.6250,0,,,
4.178000,100.3750,0,,,
4.188000,89.0000,0,,,
4.198000,85.7500,0,,,
4.208000,72.7500,0,,,
4.218000,71.6250,0,,,
4.228000,45.3750,0,,,
4.238000,-180.3750,0,,,
4.248000,-47.6250,0,,,
4.258000,-96.7500,0,,,
4.268000,-80.1250,0,,,
4.278000,-161.0000,0,,,
4.288000,-537.0000,0,,,
4.298000,-141.3750,0,,,
4.308000,-174.1250,0,,,
4.318000,-527.1250,0,,,
4.328000,-154.8750,0,,,
4.338000,-148.0000,0,,,
4.348000,-300.1250,0,,,
4.358000,-165.5000,0,,,
4.368000,-471.1250,0,,,
4.378000,-171.3750,0,,,
4.388000,-441.2500,0,,,
4.398000,-177.6250,0,,,
4.408000,-337.0000,0,,,
4.418000,-185.0000,0,,,
4.428000,-408.1250,0,,,
4.438000,-189.8750,0,,,
4.448000,-506.0000,0,,,
4.458000,-194.7500,0,,,
4.468000,-557.6250,0,,,
4.478000,-198.1250,0,,,
4.488000,-624.0000,0,,,
4.498000,-201.0000,0,,,
4.508000,-593.3750,0,,,
4.518000,-203.7500,0,,,
4.528000,-638.6250,0,,,
4.538000,-206.1250,0,,,
4.548000,-215.0000,0,,,
4.558000,-304.7500,0,,,
4.568000,-226.2500,0,,,
4.578000,-311.3750,0,,,
4.588000,-422.0000,0,,,
4.598000,-261.3750,0,,,
4.608000,-264.8750,0,,,
4.618000,-366.1250,0,,,
4.628000,-274.5000,0,,,
4.638000,-278.1250,0,,,
4.648000,-397.5000,0,,,
4.658000,-503.1250,0,,,
4.668000,-277.8750,0,,,
4.678000,-280.2500,0,,,
4.688000,-280.5000,0,,,
4.698000,-287.2500,0,,,
4.708000,-280.7500,0,,,
4.718000,-283.7500,0,,,
4.728000,-265.5000,0,,,
4.738000,-263.5000,0,,,
4.748000,-271.7500,0,,,
4.758000,-298.3750,0,,,
4.768000,-300.3750,0,,,
4.778000,-306.0000,0,,,
4.788000,-303.7500,0,,,
4.798000,-325.7500,0,,,
4.808000,-302.8750,0,,,
4.818000,-296.5000,0,,,
4.828000,-305.1250,0,,,
4.838000,-285.8750,0,,,
4.848000,-302.8750,0,,,
4.858000,-273.6250,0,,,
4.868000,-298.0000,0,,,
4.878000,-276.6250,0,,,
4.888000,-296.1250,0,,,
4.898000,-293.0000,0,,,
4.908000,-300.0000,0,,,
4.918000,-297.7500,0,,,
4.928000,-270.3750,0,,,
4.938000,-289.5000,0,,,
4.948000,-294.1250,0,,,
4.958000,-304.0000,0,,,
4.968000,-280.6250,0,,,
4.978000,-287.5000,0,,,
4.988000,-283.2500,0,,,
4.998000,-282.7500,0,,,
5.008000,-283.3750,0,,,
5.018000,-282.7500,0,,,
5.028000,-311.6250,0,,,
5.038000,-283.5000,0,,,
5.048000,-418.0000,0,,,
5.058000,-282.5000,0,,,
5.068000,-277.5000,0,,,
5.078000,-265.7500,0,,,
5.088000,-265.5000,0,,,
5.098000,-262.6250,0,,,
5.108000,-257.2500,0,,,
5.118000,-257.6250,0,,,
5.128000,-182.1250,0,,,
5.138000,-536.3750,0,,,
5.148000,-165.5000,0,,,
5.158000,-161.8750,0,,,
5.168000,-163.2500,0,,,
5.178000,-164.2500,0,,,
5.188000,-165.2500,0,,,
5.198000,-165.8750,0,,,
5.208000,-166.5000,0,,,
5.218000,-168.5000,0,,,
5.228000,-169.0000,0,,,
5.238000,-170.0000,0,,,
5.248000,-171.3750,0,,,
5.258000,-172.2500,0,,,
5.268000,-173.2500,0,,,
5.278000,-173.0000,0,,,
5.288000,-172.5000,0,,,
5.298000,-175.0000,0,,,
5.308000,-174.5000,0,,,
5.318000,-175.2500,0,,,
5.328000,-173.8750,0,,,
5.338000,-175.5000,0,,,
5.348000,-175.0000,0,,,
5.358000,-174.5000,0,,,
5.368000,-174.8750,0,,,
5.378000,-175.2500,0,,,
5.388000,-174.6250,0,,,
5.398000,-173.8750,0,,,
5.408000,-173.8750,0,,,
5.418000,-174.0000,0,,,
5.428000,-172.6250,0,,,
5.438000,-32.3750,0,,,
5.448000,217.2500,0,,,
5.458000,-530.6250,0,,,
5.468000,307.8750,0,,,
5.478000,361.0000,0,,,
5.488000,-1328.7500,0,,,
5.498000,375.1250,0,,,
5.508000,-447.2500,0,,,
5.518000,423.8750,0,,,
5.528000,-743.3750,0,,,
5.538000,520.5000,0,,,
5.548000,482.8750,0,,,
5.558000,452.0000,0,,,
5.568000,-304.3750,0,,,
5.578000,-527.1250,0,,,
5.588000,97.8750,0,,,
5.598000,-332.2500,0,,,
5.608000,493.0000,0,,,
5.618000,488.0000,0,,,
5.628000,547.7500,0,,,
5.638000,-99.8750,0,,,
5.648000,544.8750,0,,,
5.658000,6.6250,0,,,
5.668000,-103.5000,0,,,
5.678000,473.7500,0,,,
5.688000,457.1250,0,,,
5.698000,409.3750,0,,,
5.708000,352.1250,0,,,
5.718000,184.2500,0,,,
5.728000,186.7500,0,,,
5.738000,-370.5000,0,,,
5.748000,-80.8750,0,,,
5.758000,-477.6250,0,,,
5.768000,360.6250,0,,,
5.778000,-485.0000,0,,,
5.788000,354.8750,0,,,
5.798000,345.7500,0,,,
5.808000,328.8750,0,,,
5.818000,321.2500,0,,,
5.828000,312.3750,0,,,
5.838000,323.1250,0,,,
5.848000,316.0000,0,,,
5.858000,310.8750,0,,,
5.868000,312.7500,0,,,
5.878000,309.3750,0,,,
5.888000,-204.3750,0,,,
5.898000,304.6250,0,,,
5.908000,-327.3750,0,,,
5.918000,299.6250,0,,,
5.928000,-534.7500,0,,,
5.938000,257.7500,0,,,
5.948000,-1223.5000,0,,,
5.958000,286.8750,0,,,
5.968000,-1318.1250,0,,,
5.978000,285.7500,0,,,
5.988000,-1189.3750,0,,,
5.998000,289.7500,0,,,
6.008000,-1109.7500,0,,,
6.018000,303.0000,0,,,
6.028000,-1126.2500,0,,,
6.038000,305.5000,0,,,
6.048000,-1192.0000,0,,,
6.058000,310.2500,0,,,
6.068000,-1127.8750,0,,,
6.078000,314.3750,0,,,
6.088000,-892.0000,0,,,
6.098000,324.2500,0,,,
6.108000,-120.7500,0,,,
6.118000,311.0000,0,,,
6.128000,228.3750,0,,,
6.138000,-748.0000,0,,,
6.148000,328.2500,0,,,
6.158000,-1096.5000,0,,,
6.168000,333.7500,0,,,
6.178000,-1266.3750,0,,,
6.188000,340.2500,0,,,
6.198000,-1141.7500,0,,,
6.208000,343.5000,0,,,
6.218000,-915.7500,0,,,
6.228000,342.2500,0,,,
6.238000,-1065.2500,0,,,
6.248000,343.7500,0,,,
6.258000,-1008.0000,0,,,
6.268000,345.1250,0,,,
6.278000,-1037.8750,0,,,
6.288000,346.2500,0,,,
6.298000,381.3750,0,,,
6.308000,448.1250,0,,,
6.318000,-1324.2500,0,,,
6.328000,498.1250,0,,,
6.338000,-1324.1250,0,,,
6.348000,506.8750,0,,,
6.358000,-1323.8750,0,,,
6.368000,566.2500,0,,,
6.378000,-1324.3750,0,,,
6.388000,615.0000,0,,,
6.398000,-1326.1250,0,,,
6.408000,674.7500,0,,,
6.418000,-1324.0000,0,,,
6.428000,677.7500,0,,,
6.438000,-1324.0000,0,,,
6.448000,697.1250,0,,,
6.458000,-1323.3750,0,,,
6.468000,794.2500,0,,,
6.478000,-1321.6250,0,,,
6.488000,436.1250,0,,,
6.498000,-1327.8750,0,,,
6.508000,688.5000,0,,,
6.518000,-1327.1250,0,,,
6.528000,822.6250,0,,,
6.538000,-456.7500,0,,,
6.548000,735.7500,3,62.06,-10.04,11.73
6.558000,-1325.5000,3,62.06,-10.04,11.73
6.568000,85.3750,3,62.06,-10.04,11.73
6.578000,-1325.0000,3,62.06,-10.04,11.73
6.588000,453.2500,3,62.06,-10.04,11.73
6.598000,-1326.0000,3,62.06,-10.04,11.73
6.608000,326.7500,3,62.06,-10.04,11.73
6.618000,-993.0000,3,62.06,-10.04,11.73
6.628000,539.7500,3,62.06,-10.04,11.73
6.638000,-1036.6250,3,62.06,-10.04,11.73
6.648000,502.6250,3,62.06,-10.04,11.73
6.658000,-1105.2500,3,62.06,-10.04,11.73
6.668000,-335.7500,3,62.06,-10.04,11.73
6.678000,-994.6250,3,62.06,-10.04,11.73
6.688000,1039.2500,3,62.06,-10.04,11.73
6.698000,-1323.8750,3,62.06,-10.04,11.73
6.708000,1038.5000,3,62.06,-10.04,11.73
6.718000,-1326.5000,3,62.06,-10.04,11.73
6.728000,1038.3750,3,62.06,-10.04,11.73
6.738000,-1326.7500,3,62.06,-10.04,11.73
6.748000,1037.0000,3,62.06,-10.04,11.73
6.758000,-1324.1250,3,62.06,-10.04,11.73
6.768000,51.3750,3,62.06,-10.04,11.73
6.778000,-1234.2500,3,62.06,-10.04,11.73
6.788000,301.1250,3,62.06,-10.04,11.73
6.798000,-882.0000,3,62.06,-10.04,11.73
6.808000,811.3750,3,62.06,-10.04,11.73
6.818000,793.3750,3,62.06,-10.04,11.73
6.828000,190.8750,3,62.06,-10.04,11.73
6.838000,654.1250,3,62.06,-10.04,11.73
6.848000,633.8750,3,62.06,-10.04,11.73
6.858000,634.7500,3,62.06,-10.04,11.73
6.868000,-1053.1250,3,62.06,-10.04,11.73
6.878000,-66.2500,3,62.06,-10.04,11.73
6.888000,-1311.5000,3,62.06,-10.04,11.73
6.898000,-1085.1250,3,62.06,-10.04,11.73
6.908000,-1296.7500,3,62.06,-10.04,11.73
6.918000,949.2500,3,62.06,-10.04,11.73
6.928000,-569.1250,3,62.06,-10.04,11.73
6.938000,1034.5000,3,62.06,-10.04,11.73
6.948000,-1030.2500,3,62.06,-10.04,11.73
6.958000,1031.3750,3,62.06,-10.04,11.73
6.968000,599.8750,3,62.06,-10.04,11.73
6.978000,1030.1250,3,62.06,-10.04,11.73
6.988000,-1149.2500,3,62.06,-10.04,11.73
6.998000,1031.5000,3,62.06,-10.04,11.73
7.008000,-1279.2500,3,62.06,-10.04,11.73
7.018000,1032.6250,3,62.06,-10.04,11.73
7.028000,-1225.5000,3,62.06,-10.04,11.73
7.038000,1030.2500,3,62.06,-10.04,11.73
7.048000,-1317.7500,3,62.06,-10.04,11.73
7.058000,1033.2500,3,62.06,-10.04,11.73
7.068000,-1199.5000,3,62.06,-10.04,11.73
7.078000,1032.6250,3,62.06,-10.04,11.73
7.088000,-1036.6250,3,62.06,-10.04,11.73
7.098000,1032.8750,3,62.06,-10.04,11.73
7.108000,-1092.0000,3,62.06,-10.04,11.73
7.118000,1029.8750,3,62.06,-10.04,11.73
7.128000,-1084.0000,3,62.06,-10.04,11.73
7.138000,1030.1250,3,62.06,-10.04,11.73
7.148000,-1166.6250,3,62.06,-10.04,11.73
7.158000,1033.3750,3,62.06,-10.04,11.73
7.168000,-1143.3750,3,62.06,-10.04,11.73
7.178000,1036.5000,3,62.06,-10.04,11.73
7.188000,-1259.2500,3,62.06,-10.04,11.73
7.198000,1034.0000,3,62.06,-10.04,11.73
7.208000,-1202.2500,3,62.06,-10.04,11.73
7.218000,1031.8750,3,62.06,-10.04,11.73
7.228000,-1323.6250,3,62.06,-10.04,11.73
7.238000,1036.0000,3,62.06,-10.04,11.73
7.248000,-1327.6250,3,62.06,-10.04,11.73
7.258000,1035.6250,3,62.06,-10.04,11.73
7.268000,-1263.6250,3,62.06,-10.04,11.73
7.278000,1031.5000,3,62.06,-10.04,11.73
7.288000,-1000.0000,3,62.06,-10.04,11.73
7.298000,1026.0000,3,62.06,-10.04,11.73
7.308000,-919.5000,3,62.06,-10.04,11.73
7.318000,1027.7500,3,62.06,-10.04,11.73
7.328000,-1026.6250,3,62.06,-10.04,11.73
7.338000,1027.1250,3,62.06,-10.04,11.73
7.348000,-1024.1250,3,62.06,-10.04,11.73
7.358000,1026.2500,3,62.06,-10.04,11.73
7.368000,-823.8750,3,62.06,-10.04,11.73
7.378000,1026.2500,3,62.06,-10.04,11.73
7.388000,-925.8750,3,62.06,-10.04,11.73
7.398000,1026.7500,3,62.06,-10.04,11.73
7.408000,-1320.2500,3,62.06,-10.04,11.73
7.418000,1026.8750,3,62.06,-10.04,11.73
7.428000,-1326.1250,3,62.06,-10.04,11.73
7.438000,1026.0000,3,62.06,-10.04,11.73
7.448000,-1330.7500,3,62.06,-10.04,11.73
7.458000,1026.3750,3,62.06,-10.04,11.73
7.468000,-1323.3750,3,62.06,-10.04,11.73
7.478000,1024.7500,3,62.06,-10.04,11.73
7.488000,-1323.8750,3,62.06,-10.04,11.73
7.498000,1026.2500,3,62.06,-10.04,11.73
7.508000,-1324.0000,3,62.06,-10.04,11.73
7.518000,1026.6250,3,62.06,-10.04,11.73
7.528000,-1323.3750,3,62.06,-10.04,11.73
7.538000,1024.2500,3,62.06,-10.04,11.73
7.548000,-1324.1250,3,62.06,-10.04,11.73
7.558000,1023.3750,3,62.06,-10.04,11.73
7.568000,-856.3750,3,62.06,-10.04,11.73
7.578000,1024.3750,3,62.06,-10.04,11.73
7.588000,-1321.5000,3,62.06,-10.04,11.73
7.598000,1030.2500,3,62.06,-10.04,11.73
7.608000,-1324.0000,3,62.06,-10.04,11.73
7.618000,1029.3750,3,62.06,-10.04,11.73
7.628000,-1327.3750,3,62.06,-10.04,11.73
7.638000,1028.2500,3,62.06,-10.04,11.73
7.648000,-1320.6250,3,62.06,-10.04,11.73
7.658000,1030.2500,3,62.06,-10.04,11.73
7.668000,-1313.8750,3,62.06,-10.04,11.73
7.678000,1030.3750,3,62.06,-10.04,11.73
7.688000,-1334.3750,3,62.06,-10.04,11.73
7.698000,1036.5000,3,62.06,-10.04,11.73
7.708000,-730.3750,3,62.06,-10.04,11.73
7.718000,1032.5000,3,62.06,-10.04,11.73
7.728000,-817.0000,3,62.06,-10.04,11.73
7.738000,1028.5000,3,62.06,-10.04,11.73
7.748000,-683.7500,3,62.06,-10.04,11.73
7.758000,571.1250,3,62.06,-10.04,11.73
7.768000,-622.1250,3,62.06,-10.04,11.73
7.778000,651.0000,3,62.06,-10.04,11.73
7.788000,-593.8750,3,62.06,-10.04,11.73
7.798000,721.5000,3,62.06,-10.04,11.73
7.808000,537.7500,3,62.06,-10.04,11.73
7.818000,-399.3750,3,62.06,-10.04,11.73
7.828000,992.3750,3,62.06,-10.04,11.73
7.838000,-211.3750,3,62.06,-10.04,11.73
7.848000,1030.2500,3,62.06,-10.04,11.73
7.858000,-981.8750,3,62.06,-10.04,11.73
7.868000,1021.0000,3,62.06,-10.04,11.73
7.878000,-331.7500,3,62.06,-10.04,11.73
7.888000,1024.8750,3,62.06,-10.04,11.73
7.898000,312.5000,3,62.06,-10.04,11.73
7.908000,1025.0000,3,62.06,-10.04,11.73
7.918000,251.3750,3,62.06,-10.04,11.73
7.928000,1025.3750,3,62.06,-10.04,11.73
7.938000,-817.8750,3,62.06,-10.04,11.73
7.948000,1027.0000,3,62.06,-10.04,11.73
7.958000,-909.2500,3,62.06,-10.04,11.73
7.968000,1025.8750,3,62.06,-10.04,11.73
7.978000,-1317.2500,3,62.06,-10.04,11.73
7.988000,1026.6250,3,62.06,-10.04,11.73
7.998000,-1320.7500,3,62.06,-10.04,11.73
8.008000,1028.5000,3,62.06,-10.04,11.73
8.018000,-1305.2500,3,62.06,-10.04,11.73
8.028000,1026.0000,3,62.06,-10.04,11.73
8.038000,-1319.3750,3,62.06,-10.04,11.73
8.048000,1025.1250,3,62.06,-10.04,11.73
8.058000,-1206.3750,3,62.06,-10.04,11.73
8.068000,1025.1250,3,62.06,-10.04,11.73
8.078000,-1188.5000,3,62.06,-10.04,11.73
8.088000,1025.5000,3,62.06,-10.04,11.73
8.098000,-1305.8750,3,62.06,-10.04,11.73
8.108000,1025.5000,3,62.06,-10.04,11.73
8.118000,-1325.8750,3,62.06,-10.04,11.73
8.128000,1026.3750,3,62.06,-10.04,11.73
8.138000,-1324.3750,3,62.06,-10.04,11.73
8.148000,1025.3750,3,62.06,-10.04,11.73
8.158000,-1324.1250,3,62.06,-10.04,11.73
8.168000,1025.8750,3,62.06,-10.04,11.73
8.178000,-1325.1250,3,62.06,-10.04,11.73
8.188000,1025.5000,3,62.06,-10.04,11.73
8.198000,-1332.1250,3,62.06,-10.04,11.73
8.208000,1026.8750,3,62.06,-10.04,11.73
8.218000,-1327.3750,3,62.06,-10.04,11.73
8.228000,1027.6250,3,62.06,-10.04,11.73
8.238000,-1277.8750,3,62.06,-10.04,11.73
8.248000,1017.1250,3,62.06,-10.04,11.73
8.258000,-964.3750,3,62.06,-10.04,11.73
8.268000,-1160.2500,3,62.06,-10.04,11.73
8.278000,-1318.8750,3,62.06,-10.04,11.73
8.288000,-1237.1250,3,62.06,-10.04,11.73
8.298000,-1326.1250,3,62.06,-10.04,11.73
8.308000,67.0000,3,62.06,-10.04,11.73
8.318000,-1325.0000,3,62.06,-10.04,11.73
8.328000,-1329.1250,3,62.06,-10.04,11.73
8.338000,-1327.7500,3,62.06,-10.04,11.73
8.348000,-56.7500,3,62.06,-10.04,11.73
8.358000,-1175.1250,3,62.06,-10.04,11.73
8.368000,-1211.0000,3,62.06,-10.04,11.73
8.378000,-0.2500,3,62.06,-10.04,11.73
8.388000,-1290.0000,3,62.06,-10.04,11.73
8.398000,1024.3750,3,62.06,-10.04,11.73
8.408000,-1321.2500,3,62.06,-10.04,11.73
8.418000,1026.5000,3,62.06,-10.04,11.73
8.428000,-1299.3750,3,62.06,-10.04,11.73
8.438000,1027.0000,3,62.06,-10.04,11.73
8.448000,-1292.8750,3,62.06,-10.04,11.73
8.458000,-1329.0000,3,62.06,-10.04,11.73
8.468000,-318.6250,3,62.06,-10.04,11.73
8.478000,926.7500,3,62.06,-10.04,11.73
8.488000,-809.5000,3,62.06,-10.04,11.73
8.498000,1024.3750,3,62.06,-10.04,11.73
8.508000,-1270.3750,3,62.06,-10.04,11.73
8.518000,-1186.3750,3,62.06,-10.04,11.73
8.528000,-1207.0000,3,62.06,-10.04,11.73
8.538000,-685.0000,3,62.06,-10.04,11.73
8.548000,-1324.2500,3,62.06,-10.04,11.73
8.558000,-1274.6250,3,62.06,-10.04,11.73
8.568000,-1322.8750,3,62.06,-10.04,11.73
8.578000,-790.0000,3,62.06,-10.04,11.73
8.588000,-1324.0000,3,62.06,-10.04,11.73
8.598000,1034.8750,3,62.06,-10.04,11.73
8.608000,-1329.0000,3,62.06,-10.04,11.73
8.618000,1031.3750,3,62.06,-10.04,11.73
8.628000,-1324.5000,3,62.06,-10.04,11.73
8.638000,1027.8750,3,62.06,-10.04,11.73
8.648000,-1327.8750,3,62.06,-10.04,11.73
8.658000,1029.8750,3,62.06,-10.04,11.73
8.668000,-1324.0000,3,62.06,-10.04,11.73
8.678000,1031.7500,3,62.06,-10.04,11.73
8.688000,-1321.5000,3,62.06,-10.04,11.73
8.698000,783.6250,3,62.06,-10.04,11.73
8.708000,-1328.2500,3,62.06,-10.04,11.73
8.718000,821.6250,3,62.06,-10.04,11.73
8.728000,-1320.6250,3,62.06,-10.04,11.73
8.738000,862.1250,3,62.06,-10.04,11.73
8.748000,-1024.8750,3,62.06,-10.04,11.73
8.758000,885.5000,3,62.06,-10.04,11.73
8.768000,-1067.1250,3,62.06,-10.04,11.73
8.778000,-1218.0000,3,62.06,-10.04,11.73
8.788000,-1329.8750,3,62.06,-10.04,11.73
8.798000,-1289.3750,3,62.06,-10.04,11.73
8.808000,-908.8750,3,62.06,-10.04,11.73
8.818000,1030.5000,3,62.06,-10.04,11.73
8.828000,1031.7500,3,62.06,-10.04,11.73
8.838000,1035.8750,3,62.06,-10.04,11.73
8.848000,1033.2500,3,62.06,-10.04,11.73
8.858000,-984.2500,3,62.06,-10.04,11.73
8.868000,701.0000,3,62.06,-10.04,11.73
8.878000,-810.3750,3,62.06,-10.04,11.73
8.888000,-1321.0000,3,62.06,-10.04,11.73
8.898000,-1121.3750,3,62.06,-10.04,11.73
8.908000,-1146.6250,3,62.06,-10.04,11.73
8.918000,-1215.2500,3,62.06,-10.04,11.73
8.928000,-342.5000,3,62.06,-10.04,11.73
8.938000,1027.3750,3,62.06,-10.04,11.73
8.948000,-1113.5000,3,62.06,-10.04,11.73
8.958000,1033.2500,3,62.06,-10.04,11.73
8.968000,-1322.7500,3,62.06,-10.04,11.73
8.978000,-865.1250,3,62.06,-10.04,11.73
8.988000,-870.3750,3,62.06,-10.04,11.73
8.998000,999.0000,3,62.06,-10.04,11.73
9.008000,-816.7500,3,62.06,-10.04,11.73
9.018000,1027.8750,3,62.06,-10.04,11.73
9.028000,-920.8750,3,62.06,-10.04,11.73
9.038000,1027.2500,3,62.06,-10.04,11.73
9.048000,560.7500,3,62.06,-10.04,11.73
9.058000,1026.1250,3,62.06,-10.04,11.73
9.068000,1028.1250,3,62.06,-10.04,11.73
9.078000,1029.0000,3,62.06,-10.04,11.73
9.088000,1028.2500,3,62.06,-10.04,11.73
9.098000,-820.8750,3,62.06,-10.04,11.73
9.108000,722.6250,3,62.06,-10.04,11.73
9.118000,-1324.1250,3,62.06,-10.04,11.73
9.128000,-911.2500,3,62.06,-10.04,11.73
9.138000,-932.6250,3,62.06,-10.04,11.73
9.148000,1031.3750,3,62.06,-10.04,11.73
9.158000,-827.5000,3,62.06,-10.04,11.73
9.168000,1034.8750,3,62.06,-10.04,11.73
9.178000,-1057.0000,3,62.06,-10.04,11.73
9.188000,1035.2500,3,62.06,-10.04,11.73
9.198000,-958.0000,3,62.06,-10.04,11.73
9.208000,1032.6250,3,62.06,-10.04,11.73
9.218000,-614.7500,3,62.06,-10.04,11.73
9.228000,1033.8750,3,62.06,-10.04,11.73
9.238000,1030.6250,3,62.06,-10.04,11.73
9.248000,-1190.0000,3,62.06,-10.04,11.73
9.258000,1036.3750,3,62.06,-10.04,11.73
9.268000,1038.8750,3,62.06,-10.04,11.73
9.278000,864.0000,3,62.06,-10.04,11.73
9.288000,-1193.3750,3,62.06,-10.04,11.73
9.298000,1029.2500,3,62.06,-10.04,11.73
9.308000,1028.1250,3,62.06,-10.04,11.73
9.318000,847.2500,3,62.06,-10.04,11.73
9.328000,-1322.8750,3,62.06,-10.04,11.73
9.338000,-1324.2500,3,62.06,-10.04,11.73
9.348000,-13.2500,3,62.06,-10.04,11.73
9.358000,-1324.2500,3,62.06,-10.04,11.73
9.368000,-1331.6250,3,62.06,-10.04,11.73
9.378000,1028.5000,3,62.06,-10.04,11.73
9.388000,1029.8750,3,62.06,-10.04,11.73
9.398000,1030.8750,3,62.06,-10.04,11.73
9.408000,1031.0000,3,62.06,-10.04,11.73
9.418000,384.2500,3,62.06,-10.04,11.73
9.428000,1035.0000,3,62.06,-10.04,11.73
9.438000,1038.0000,3,62.06,-10.04,11.73
9.448000,826.0000,3,62.06,-10.04,11.73
9.458000,-1323.6250,3,62.06,-10.04,11.73
9.468000,-1323.1250,3,62.06,-10.04,11.73
9.478000,549.7500,3,62.06,-10.04,11.73
9.488000,796.7500,3,62.06,-10.04,11.73
9.498000,-108.8750,3,62.06,-10.04,11.73
9.508000,883.2500,3,62.06,-10.04,11.73
9.518000,-1324.5000,3,62.06,-10.04,11.73
9.528000,1040.6250,3,62.06,-10.04,11.73
9.538000,866.5000,3,62.06,-10.04,11.73
9.548000,1038.2500,3,62.06,-10.04,11.73
9.558000,1036.0000,3,62.06,-10.04,11.73
9.568000,1036.2500,3,62.06,-10.04,11.73
9.578000,1034.7500,3,62.06,-10.04,11.73
9.588000,-1322.3750,3,62.06,-10.04,11.73
9.598000,-1323.5000,3,62.06,-10.04,11.73
9.608000,-820.0000,3,62.06,-10.04,11.73
9.618000,1033.2500,3,62.06,-10.04,11.73
9.628000,-1324.2500,3,62.06,-10.04,11.73
9.638000,1034.0000,3,62.06,-10.04,11.73
9.648000,-1324.2500,3,62.06,-10.04,11.73
9.658000,-1020.7500,3,62.06,-10.04,11.73
9.668000,1033.8750,3,62.06,-10.04,11.73
9.678000,1030.6250,3,62.06,-10.04,11.73
9.688000,590.6250,3,62.06,-10.04,11.73
9.698000,617.1250,3,62.06,-10.04,11.73
9.708000,-1322.5000,3,62.06,-10.04,11.73
9.718000,1030.1250,3,62.06,-10.04,11.73
9.728000,1029.8750,3,62.06,-10.04,11.73
9.738000,-1324.1250,3,62.06,-10.04,11.73
9.748000,1030.2500,3,62.06,-10.04,11.73
9.758000,-1323.1250,3,62.06,-10.04,11.73
9.768000,-93.6250,3,62.06,-10.04,11.73
9.778000,910.1250,3,62.06,-10.04,11.73
9.788000,711.5000,3,62.06,-10.04,11.73
9.798000,-1323.0000,3,62.06,-10.04,11.73
9.808000,-814.7500,3,62.06,-10.04,11.73
9.818000,-900.7500,3,62.06,-10.04,11.73
9.828000,1026.3750,3,62.06,-10.04,11.73
9.838000,-839.1250,3,62.06,-10.04,11.73
9.848000,-1322.7500,3,62.06,-10.04,11.73
9.858000,487.0000,3,62.06,-10.04,11.73
9.868000,-769.2500,3,62.06,-10.04,11.73
9.878000,457.6250,3,62.06,-10.04,11.73
9.888000,-794.7500,3,62.06,-10.04,11.73
9.898000,1026.1250,3,62.06,-10.04,11.73
9.908000,1025.0000,3,62.06,-10.04,11.73
9.918000,1028.5000,3,62.06,-10.04,11.73
9.928000,226.0000,3,62.06,-10.04,11.73
9.938000,-1322.5000,3,62.06,-10.04,11.73
9.948000,1026.7500,3,62.06,-10.04,11.73
9.958000,1027.8750,3,62.06,-10.04,11.73
9.968000,1028.8750,3,62.06,-10.04,11.73
9.978000,1029.8750,3,62.06,-10.04,11.73
9.988000,1031.7500,3,62.06,-10.04,11.73
9.998000,1033.2500,3,62.06,-10.04,11.73
10.008000,1034.3750,3,62.06,-10.04,11.73
10.018000,1036.6250,3,62.06,-10.04,11.73
10.028000,1037.2500,3,62.06,-10.04,11.73
10.038000,1037.0000,3,62.06,-10.04,11.73
10.048000,1038.8750,3,62.06,-10.04,11.73
10.058000,1038.3750,3,62.06,-10.04,11.73
10.068000,1040.5000,3,62.06,-10.04,11.73
10.078000,1041.5000,3,62.06,-10.04,11.73
10.088000,1037.5000,3,62.06,-10.04,11.73
10.098000,1019.2500,3,62.06,-10.04,11.73
10.108000,1001.5000,3,62.06,-10.04,11.73
10.118000,981.6250,3,62.06,-10.04,11.73
10.128000,960.2500,3,62.06,-10.04,11.73
10.138000,943.7500,3,62.06,-10.04,11.73
10.148000,897.5000,3,62.06,-10.04,11.73
10.158000,876.8750,3,62.06,-10.04,11.73
10.168000,860.1250,3,62.06,-10.04,11.73
10.178000,842.2500,3,62.06,-10.04,11.73
10.188000,823.3750,3,62.06,-10.04,11.73
10.198000,808.5000,3,62.06,-10.04,11.73
10.208000,790.6250,3,62.06,-10.04,11.73
10.218000,765.6250,3,62.06,-10.04,11.73
10.228000,749.6250,3,62.06,-10.04,11.73
10.238000,733.2500,3,62.06,-10.04,11.73
10.248000,714.7500,3,62.06,-10.04,11.73
10.258000,699.2500,3,62.06,-10.04,11.73
10.268000,683.6250,3,62.06,-10.04,11.73
10.278000,667.0000,3,62.06,-10.04,11.73
10.288000,650.6250,3,62.06,-10.04,11.73
10.298000,634.7500,3,62.06,-10.04,11.73
10.308000,617.8750,3,62.06,-10.04,11.73
10.318000,604.3750,3,62.06,-10.04,11.73
10.328000,590.3750,3,62.06,-10.04,11.73
10.338000,576.2500,3,62.06,-10.04,11.73
10.348000,562.1250,3,62.06,-10.04,11.73
10.358000,586.7500,3,62.06,-10.04,11.73
10.368000,536.3750,3,62.06,-10.04,11.73
10.378000,523.5000,3,62.06,-10.04,11.73
10.388000,511.1250,3,62.06,-10.04,11.73
10.398000,496.6250,3,62.06,-10.04,11.73
10.408000,483.0000,3,62.06,-10.04,11.73
10.418000,465.0000,3,62.06,-10.04,11.73
10.428000,437.5000,3,62.06,-10.04,11.73
10.438000,405.5000,3,62.06,-10.04,11.73
10.448000,394.6250,3,62.06,-10.04,11.73
10.458000,381.8750,3,62.06,-10.04,11.73
10.468000,370.6250,3,62.06,-10.04,11.73
10.478000,359.0000,3,62.06,-10.04,11.73
10.488000,347.3750,3,62.06,-10.04,11.73
10.498000,337.8750,3,62.06,-10.04,11.73
10.508000,325.7500,3,62.06,-10.04,11.73
10.518000,314.6250,3,62.06,-10.04,11.73
10.528000,304.1250,3,62.06,-10.04,11.73
10.538000,291.7500,3,62.06,-10.04,11.73
10.548000,283.0000,3,62.06,-10.04,11.73
10.558000,272.3750,3,62.06,-10.04,11.73
10.568000,261.2500,3,62.06,-10.04,11.73
10.578000,252.0000,3,62.06,-10.04,11.73
10.588000,244.6250,3,62.06,-10.04,11.73
10.598000,234.5000,3,62.06,-10.04,11.73
10.608000,222.5000,3,62.06,-10.04,11.73
10.618000,214.0000,5,56.94,-7.48,4.46
10.628000,205.1250,5,56.94,-7.48,4.46
10.638000,195.0000,5,56.94,-7.48,4.46
10.648000,185.8750,5,56.94,-7.48,4.46
10.658000,177.3750,5,56.94,-7.48,4.46
10.668000,168.3750,5,56.94,-7.48,4.46
10.678000,159.3750,5,56.94,-7.48,4.46
10.688000,150.3750,5,56.94,-7.48,4.46
10.698000,142.5000,5,56.94,-7.48,4.46
10.708000,133.7500,5,56.94,-7.48,4.46
10.718000,125.8750,5,56.94,-7.48,4.46
10.728000,117.1250,5,56.94,-7.48,4.46
10.738000,108.2500,5,56.94,-7.48,4.46
10.748000,101.1250,5,56.94,-7.48,4.46
10.758000,92.3750,5,56.94,-7.48,4.46
10.768000,85.2500,5,56.94,-7.48,4.46
10.778000,76.6250,5,56.94,-7.48,4.46
10.788000,68.6250,5,56.94,-7.48,4.46
10.798000,60.8750,5,56.94,-7.48,4.46
10.808000,53.2500,5,56.94,-7.48,4.46
10.818000,46.1250,5,56.94,-7.48,4.46
10.828000,38.6250,5,56.94,-7.48,4.46
10.838000,31.0000,5,56.94,-7.48,4.46
10.848000,24.2500,5,56.94,-7.48,4.46
10.858000,16.6250,5,56.94,-7.48,4.46
10.868000,10.3750,5,56.94,-7.48,4.46
10.878000,3.6250,5,56.94,-7.48,4.46
10.888000,-3.7500,5,56.94,-7.48,4.46
10.898000,-9.7500,5,56.94,-7.48,4.46
10.908000,-16.6250,5,56.94,-7.48,4.46
10.918000,-23.8750,5,56.94,-7.48,4.46
10.928000,-30.1250,5,56.94,-7.48,4.46
10.938000,-37.3750,5,56.94,-7.48,4.46
10.948000,-43.0000,5,56.94,-7.48,4.46
10.958000,-50.3750,5,56.94,-7.48,4.46
10.968000,-57.0000,5,56.94,-7.48,4.46
10.978000,-63.7500,5,56.94,-7.48,4.46
10.988000,-70.1250,5,56.94,-7.48,4.46
10.998000,-76.2500,5,56.94,-7.48,4.46
11.008000,-82.8750,5,56.94,-7.48,4.46
11.018000,-89.2500,5,56.94,-7.48,4.46
11.028000,-95.1250,5,56.94,-7.48,4.46
11.038000,-101.0000,5,56.94,-7.48,4.46
11.048000,-106.8750,5,56.94,-7.48,4.46
11.058000,-112.7500,5,56.94,-7.48,4.46
11.068000,-117.3750,5,56.94,-7.48,4.46
11.078000,-124.1250,5,56.94,-7.48,4.46
11.088000,-129.1250,5,56.94,-7.48,4.46
11.098000,-134.6250,5,56.94,-7.48,4.46
11.108000,-140.3750,5,56.94,-7.48,4.46
11.118000,-144.8750,5,56.94,-7.48,4.46
11.128000,-150.5000,5,56.94,-7.48,4.46
11.138000,-155.5000,5,56.94,-7.48,4.46
11.148000,-159.6250,5,56.94,-7.48,4.46
11.158000,-164.7500,5,56.94,-7.48,4.46
11.168000,-169.3750,5,56.94,-7.48,4.46
11.178000,-174.1250,5,56.94,-7.48,4.46
11.188000,-179.0000,5,56.94,-7.48,4.46
11.198000,-182.7500,5,56.94,-7.48,4.46
11.208000,-188.3750,5,56.94,-7.48,4.46
11.218000,-191.6250,5,56.94,-7.48,4.46
11.228000,-195.8750,5,56.94,-7.48,4.46
11.238000,-199.7500,5,56.94,-7.48,4.46
11.248000,-204.6250,5,56.94,-7.48,4.46
11.258000,-208.7500,5,56.94,-7.48,4.46
11.268000,-212.2500,5,56.94,-7.48,4.46
11.278000,-215.6250,5,56.94,-7.48,4.46
11.288000,-220.1250,5,56.94,-7.48,4.46
11.298000,-224.0000,5,56.94,-7.48,4.46
11.308000,-228.0000,5,56.94,-7.48,4.46
11.318000,-231.8750,5,56.94,-7.48,4.46
11.328000,-233.2500,5,56.94,-7.48,4.46
11.338000,-237.0000,5,56.94,-7.48,4.46
11.348000,-241.7500,5,56.94,-7.48,4.46
11.358000,-244.8750,5,56.94,-7.48,4.46
11.368000,-247.0000,5,56.94,-7.48,4.46
11.378000,-250.2500,5,56.94,-7.48,4.46
11.388000,-254.5000,5,56.94,-7.48,4.46
11.398000,-257.6250,5,56.94,-7.48,4.46
11.408000,-260.0000,5,56.94,-7.48,4.46
11.418000,-263.7500,5,56.94,-7.48,4.46
11.428000,-266.2500,5,56.94,-7.48,4.46
11.438000,-267.5000,5,56.94,-7.48,4.46
11.448000,-269.3750,5,56.94,-7.48,4.46
11.458000,-273.3750,5,56.94,-7.48,4.46
11.468000,-276.5000,5,56.94,-7.48,4.46
11.478000,-275.8750,5,56.94,-7.48,4.46
11.488000,-271.8750,5,56.94,-7.48,4.46
11.498000,-278.7500,5,56.94,-7.48,4.46
11.508000,-282.2500,5,56.94,-7.48,4.46
11.518000,-333.7500,5,56.94,-7.48,4.46
11.528000,-278.0000,5,56.94,-7.48,4.46
11.538000,-299.3750,5,56.94,-7.48,4.46
11.548000,-300.6250,5,56.94,-7.48,4.46
11.558000,-301.0000,5,56.94,-7.48,4.46
11.568000,-303.1250,5,56.94,-7.48,4.46
11.578000,-301.3750,5,56.94,-7.48,4.46
11.588000,-302.6250,5,56.94,-7.48,4.46
11.598000,-304.8750,5,56.94,-7.48,4.46
11.608000,-306.7500,5,56.94,-7.48,4.46
11.618000,-306.7500,5,56.94,-7.48,4.46
11.628000,-310.6250,5,56.94,-7.48,4.46
11.638000,-312.3750,5,56.94,-7.48,4.46
11.648000,-315.8750,5,56.94,-7.48,4.46
11.658000,-314.8750,5,56.94,-7.48,4.46
11.668000,-316.8750,5,56.94,-7.48,4.46
11.678000,-319.3750,5,56.94,-7.48,4.46
11.688000,-320.7500,5,56.94,-7.48,4.46
11.698000,-321.7500,5,56.94,-7.48,4.46
11.708000,-322.8750,5,56.94,-7.48,4.46
11.718000,-325.5000,5,56.94,-7.48,4.46
11.728000,-326.1250,5,56.94,-7.48,4.46
11.738000,-328.0000,5,56.94,-7.48,4.46
11.748000,-328.3750,5,56.94,-7.48,4.46
11.758000,-329.8750,5,56.94,-7.48,4.46
11.768000,-331.2500,5,56.94,-7.48,4.46
11.778000,-332.0000,5,56.94,-7.48,4.46
11.788000,-333.2500,5,56.94,-7.48,4.46
11.798000,-334.0000,5,56.94,-7.48,4.46
11.808000,-335.5000,5,56.94,-7.48,4.46
11.818000,-336.7500,5,56.94,-7.48,4.46
11.828000,-336.6250,5,56.94,-7.48,4.46
11.838000,-338.6250,5,56.94,-7.48,4.46
11.848000,-339.5000,5,56.94,-7.48,4.46
11.858000,-339.5000,5,56.94,-7.48,4.46
11.868000,-341.1250,5,56.94,-7.48,4.46
11.878000,-341.5000,5,56.94,-7.48,4.46
11.888000,-342.2500,5,56.94,-7.48,4.46
11.898000,-342.3750,5,56.94,-7.48,4.46
11.908000,-343.0000,5,56.94,-7.48,4.46
11.918000,-343.3750,5,56.94,-7.48,4.46
11.928000,-344.1250,5,56.94,-7.48,4.46
11.938000,-345.1250,5,56.94,-7.48,4.46
11.948000,-345.7500,5,56.94,-7.48,4.46
11.958000,-346.7500,5,56.94,-7.48,4.46
11.968000,-346.1250,5,56.94,-7.48,4.46
11.978000,-347.3750,5,56.94,-7.48,4.46
11.988000,-348.2500,5,56.94,-7.48,4.46
11.998000,-348.0000,5,56.94,-7.48,4.46
12.008000,-348.3750,5,56.94,-7.48,4.46
12.018000,-348.7500,5,56.94,-7.48,4.46
12.028000,-348.5000,5,56.94,-7.48,4.46
12.038000,-349.8750,5,56.94,-7.48,4.46
12.048000,-349.7500,5,56.94,-7.48,4.46
12.058000,-349.7500,5,56.94,-7.48,4.46
12.068000,-350.3750,5,56.94,-7.48,4.46
12.078000,-350.5000,5,56.94,-7.48,4.46
12.088000,-350.7500,5,56.94,-7.48,4.46
12.098000,-350.5000,5,56.94,-7.48,4.46
12.108000,-350.7500,5,56.94,-7.48,4.46
12.118000,-351.0000,5,56.94,-7.48,4.46
12.128000,-350.8750,5,56.94,-7.48,4.46
12.138000,-350.7500,5,56.94,-7.48,4.46
12.148000,-351.1250,5,56.94,-7.48,4.46
12.158000,-350.7500,5,56.94,-7.48,4.46
12.168000,-350.8750,5,56.94,-7.48,4.46
12.178000,-350.6250,5,56.94,-7.48,4.46
12.188000,-350.6250,5,56.94,-7.48,4.46
12.198000,-351.2500,5,56.94,-7.48,4.46
12.208000,-350.8750,5,56.94,-7.48,4.46
12.218000,-350.7500,5,56.94,-7.48,4.46
12.228000,-350.6250,5,56.94,-7.48,4.46
12.238000,-350.6250,5,56.94,-7.48,4.46
12.248000,-350.5000,5,56.94,-7.48,4.46
12.258000,-349.6250,5,56.94,-7.48,4.46
12.268000,-350.3750,5,56.94,-7.48,4.46
12.278000,-350.0000,5,56.94,-7.48,4.46
12.288000,-349.6250,5,56.94,-7.48,4.46
12.298000,-349.2500,5,56.94,-7.48,4.46
12.308000,-348.8750,5,56.94,-7.48,4.46
12.318000,-348.8750,5,56.94,-7.48,4.46
12.328000,-348.5000,5,56.94,-7.48,4.46
12.338000,-348.5000,5,56.94,-7.48,4.46
12.348000,-347.7500,5,56.94,-7.48,4.46
12.358000,-347.7500,5,56.94,-7.48,4.46
12.368000,-347.8750,5,56.94,-7.48,4.46
12.378000,-346.6250,5,56.94,-7.48,4.46
12.388000,-346.8750,5,56.94,-7.48,4.46
12.398000,-344.7500,5,56.94,-7.48,4.46
12.408000,-343.7500,5,56.94,-7.48,4.46
12.418000,-340.8750,5,56.94,-7.48,4.46
12.428000,-339.2500,5,56.94,-7.48,4.46
12.438000,-336.3750,5,56.94,-7.48,4.46
12.448000,-330.8750,5,56.94,-7.48,4.46
12.458000,-329.7500,5,56.94,-7.48,4.46
12.468000,-328.7500,5,56.94,-7.48,4.46
12.478000,-326.7500,5,56.94,-7.48,4.46
12.488000,-326.1250,5,56.94,-7.48,4.46
12.498000,-324.7500,5,56.94,-7.48,4.46
12.508000,-323.1250,5,56.94,-7.48,4.46
12.518000,-321.1250,5,56.94,-7.48,4.46
12.528000,-321.3750,5,56.94,-7.48,4.46
12.538000,-319.1250,5,56.94,-7.48,4.46
12.548000,-318.8750,5,56.94,-7.48,4.46
12.558000,-317.7500,5,56.94,-7.48,4.46
12.568000,-316.8750,5,56.94,-7.48,4.46
12.578000,-315.5000,5,56.94,-7.48,4.46
12.588000,-316.0000,5,56.94,-7.48,4.46
12.598000,-311.3750,5,56.94,-7.48,4.46
12.608000,-306.2500,5,56.94,-7.48,4.46
12.618000,-300.6250,5,56.94,-7.48,4.46
12.628000,-299.2500,5,56.94,-7.48,4.46
12.638000,-292.6250,5,56.94,-7.48,4.46
12.648000,-284.8750,5,56.94,-7.48,4.46
12.658000,-276.0000,5,56.94,-7.48,4.46
12.668000,-277.1250,5,56.94,-7.48,4.46
12.678000,-269.6250,5,56.94,-7.48,4.46
12.688000,-265.0000,5,56.94,-7.48,4.46
12.698000,-265.5000,5,56.94,-7.48,4.46
12.708000,-261.8750,5,56.94,-7.48,4.46
12.718000,-260.8750,5,56.94,-7.48,4.46
12.728000,-260.3750,5,56.94,-7.48,4.46
12.738000,-257.7500,5,56.94,-7.48,4.46
12.748000,-258.0000,5,56.94,-7.48,4.46
12.758000,-257.7500,5,56.94,-7.48,4.46
12.768000,-256.2500,5,56.94,-7.48,4.46
12.778000,-254.7500,5,56.94,-7.48,4.46
12.788000,-254.2500,5,56.94,-7.48,4.46
12.798000,-253.7500,5,56.94,-7.48,4.46
12.808000,-253.6250,5,56.94,-7.48,4.46
12.818000,-251.8750,5,56.94,-7.48,4.46
12.828000,-252.5000,5,56.94,-7.48,4.46
12.838000,-251.3750,5,56.94,-7.48,4.46
12.848000,-249.6250,5,56.94,-7.48,4.46
12.858000,-249.1250,5,56.94,-7.48,4.46
12.868000,-247.6250,5,56.94,-7.48,4.46
12.878000,-243.3750,5,56.94,-7.48,4.46
12.888000,-241.5000,5,56.94,-7.48,4.46
12.898000,-238.6250,5,56.94,-7.48,4.46
12.908000,-231.8750,5,56.94,-7.48,4.46
12.918000,-229.8750,5,56.94,-7.48,4.46
12.928000,-225.6250,5,56.94,-7.48,4.46
12.938000,-222.1250,5,56.94,-7.48,4.46
12.948000,-217.8750,5,56.94,-7.48,4.46
12.958000,-213.7500,5,56.94,-7.48,4.46
12.968000,-212.3750,5,56.94,-7.48,4.46
12.978000,-210.7500,5,56.94,-7.48,4.46
12.988000,-209.2500,5,56.94,-7.48,4.46
12.998000,-208.5000,5,56.94,-7.48,4.46
13.008000,-207.0000,5,56.94,-7.48,4.46
13.018000,-205.7500,5,56.94,-7.48,4.46
13.028000,-202.5000,5,56.94,-7.48,4.46
13.038000,-194.2500,5,56.94,-7.48,4.46
13.048000,-191.1250,5,56.94,-7.48,4.46
13.058000,-183.2500,5,56.94,-7.48,4.46
13.068000,-177.8750,5,56.94,-7.48,4.46
13.078000,-174.8750,5,56.94,-7.48,4.46
13.088000,-174.1250,5,56.94,-7.48,4.46
13.098000,-174.0000,5,56.94,-7.48,4.46
13.108000,-172.7500,5,56.94,-7.48,4.46
13.118000,-171.5000,5,56.94,-7.48,4.46
13.128000,-169.8750,5,56.94,-7.48,4.46
13.138000,-170.1250,5,56.94,-7.48,4.46
13.148000,-168.7500,5,56.94,-7.48,4.46
13.158000,-166.6250,5,56.94,-7.48,4.46
13.168000,-166.0000,5,56.94,-7.48,4.46
13.178000,-164.8750,5,56.94,-7.48,4.46
13.188000,-165.0000,5,56.94,-7.48,4.46
13.198000,-162.0000,5,56.94,-7.48,4.46
13.208000,-160.8750,5,56.94,-7.48,4.46
13.218000,-160.0000,5,56.94,-7.48,4.46
13.228000,-156.1250,5,56.94,-7.48,4.46
13.238000,-153.7500,5,56.94,-7.48,4.46
13.248000,-152.8750,5,56.94,-7.48,4.46
13.258000,-152.5000,5,56.94,-7.48,4.46
13.268000,-152.6250,5,56.94,-7.48,4.46
13.278000,-152.2500,5,56.94,-7.48,4.46
13.288000,-151.6250,5,56.94,-7.48,4.46
13.298000,-151.3750,5,56.94,-7.48,4.46
13.308000,-150.5000,5,56.94,-7.48,4.46
13.318000,-148.3750,5,56.94,-7.48,4.46
13.328000,-147.8750,5,56.94,-7.48,4.46
13.338000,-146.7500,5,56.94,-7.48,4.46
13.348000,-146.2500,5,56.94,-7.48,4.46
13.358000,-145.7500,5,56.94,-7.48,4.46
13.368000,-143.7500,5,56.94,-7.48,4.46
13.378000,-142.1250,5,56.94,-7.48,4.46
13.388000,-138.1250,5,56.94,-7.48,4.46
13.398000,-137.7500,5,56.94,-7.48,4.46
13.408000,-138.2500,5,56.94,-7.48,4.46
13.418000,-137.1250,5,56.94,-7.48,4.46
13.428000,-135.6250,5,56.94,-7.48,4.46
13.438000,-135.6250,5,56.94,-7.48,4.46
13.448000,-135.2500,5,56.94,-7.48,4.46
13.458000,-133.0000,5,56.94,-7.48,4.46
13.468000,-133.1250,5,56.94,-7.48,4.46
13.478000,-132.6250,5,56.94,-7.48,4.46
13.488000,-132.7500,5,56.94,-7.48,4.46
13.498000,-131.8750,5,56.94,-7.48,4.46
13.508000,-130.6250,5,56.94,-7.48,4.46
13.518000,-130.2500,5,56.94,-7.48,4.46
13.528000,-129.6250,5,56.94,-7.48,4.46
13.538000,-126.2500,5,56.94,-7.48,4.46
13.548000,-125.8750,5,56.94,-7.48,4.46
13.558000,-125.2500,5,56.94,-7.48,4.46
13.568000,-124.6250,5,56.94,-7.48,4.46
13.578000,-124.7500,5,56.94,-7.48,4.46
13.588000,-124.1250,5,56.94,-7.48,4.46
13.598000,-122.8750,5,56.94,-7.48,4.46
13.608000,-123.5000,5,56.94,-7.48,4.46
13.618000,-123.1250,5,56.94,-7.48,4.46
13.628000,-121.6250,5,56.94,-7.48,4.46
13.638000,-121.7500,5,56.94,-7.48,4.46
13.648000,-118.8750,5,56.94,-7.48,4.46
13.658000,-118.6250,5,56.94,-7.48,4.46
13.668000,-118.2500,5,56.94,-7.48,4.46
13.678000,-118.1250,5,56.94,-7.48,4.46
13.688000,-117.3750,5,56.94,-7.48,4.46
13.698000,-117.5000,5,56.94,-7.48,4.46
13.708000,-117.1250,5,56.94,-7.48,4.46
13.718000,-116.8750,5,56.94,-7.48,4.46
13.728000,-116.1250,5,56.94,-7.48,4.46
13.738000,-114.5000,5,56.94,-7.48,4.46
13.748000,-115.0000,5,56.94,-7.48,4.46
13.758000,-112.6250,5,56.94,-7.48,4.46
13.768000,-112.7500,5,56.94,-7.48,4.46
13.778000,-112.5000,5,56.94,-7.48,4.46
13.788000,-111.6250,5,56.94,-7.48,4.46
13.798000,-111.5000,5,56.94,-7.48,4.46
13.808000,-110.5000,5,56.94,-7.48,4.46
13.818000,-112.0000,5,56.94,-7.48,4.46
13.828000,-110.6250,5,56.94,-7.48,4.46
13.838000,-109.5000,5,56.94,-7.48,4.46
13.848000,-109.0000,5,56.94,-7.48,4.46
13.858000,-109.0000,5,56.94,-7.48,4.46
13.868000,-108.1250,5,56.94,-7.48,4.46
13.878000,-107.6250,5,56.94,-7.48,4.46
13.888000,-107.5000,5,56.94,-7.48,4.46
13.898000,-106.6250,5,56.94,-7.48,4.46
13.908000,-106.0000,5,56.94,-7.48,4.46
13.918000,-106.5000,5,56.94,-7.48,4.46
13.928000,-105.8750,5,56.94,-7.48,4.46
13.938000,-105.6250,5,56.94,-7.48,4.46
13.948000,-106.0000,5,56.94,-7.48,4.46
13.958000,-105.1250,5,56.94,-7.48,4.46
13.968000,-105.2500,5,56.94,-7.48,4.46
13.978000,-105.1250,5,56.94,-7.48,4.46
13.988000,-105.2500,5,56.94,-7.48,4.46
13.998000,-104.1250,5,56.94,-7.48,4.46
14.008000,-103.8750,5,56.94,-7.48,4.46
14.018000,-104.0000,5,56.94,-7.48,4.46
14.028000,-102.1250,5,56.94,-7.48,4.46
14.038000,-101.7500,5,56.94,-7.48,4.46
14.048000,-101.3750,5,56.94,-7.48,4.46
14.058000,-101.3750,5,56.94,-7.48,4.46
14.068000,-100.8750,5,56.94,-7.48,4.46
14.078000,-101.3750,5,56.94,-7.48,4.46
14.088000,-100.8750,5,56.94,-7.48,4.46
14.098000,-100.8750,5,56.94,-7.48,4.46
14.108000,-100.7500,5,56.94,-7.48,4.46
14.118000,-100.6250,5,56.94,-7.48,4.46
14.128000,-100.5000,5,56.94,-7.48,4.46
14.138000,-100.7500,5,56.94,-7.48,4.46
14.148000,-99.8750,5,56.94,-7.48,4.46
14.158000,-99.8750,5,56.94,-7.48,4.46
14.168000,-99.0000,5,56.94,-7.48,4.46
14.178000,-99.2500,5,56.94,-7.48,4.46
14.188000,-99.0000,5,56.94,-7.48,4.46
14.198000,-99.0000,5,56.94,-7.48,4.46
14.208000,-99.3750,5,56.94,-7.48,4.46
14.218000,-99.2500,5,56.94,-7.48,4.46
14.228000,-98.8750,5,56.94,-7.48,4.46
14.238000,-98.7500,5,56.94,-7.48,4.46
14.248000,-98.5000,5,56.94,-7.48,4.46
14.258000,-98.6250,5,56.94,-7.48,4.46
14.268000,-98.5000,5,56.94,-7.48,4.46
14.278000,-98.1250,5,56.94,-7.48,4.46
14.288000,-98.0000,5,56.94,-7.48,4.46
14.298000,-98.1250,5,56.94,-7.48,4.46
14.308000,-97.6250,5,56.94,-7.48,4.46
14.318000,-98.2500,5,56.94,-7.48,4.46
14.328000,-98.2500,5,56.94,-7.48,4.46
14.338000,-97.2500,5,56.94,-7.48,4.46
14.348000,-97.7500,5,56.94,-7.48,4.46
14.358000,-97.6250,5,56.94,-7.48,4.46
14.368000,-96.8750,5,56.94,-7.48,4.46
14.378000,-97.2500,5,56.94,-7.48,4.46
14.388000,-97.5000,5,56.94,-7.48,4.46
14.398000,-96.6250,5,56.94,-7.48,4.46
14.408000,-97.1250,5,56.94,-7.48,4.46
14.418000,-96.8750,5,56.94,-7.48,4.46
14.428000,-97.5000,5,56.94,-7.48,4.46
14.438000,-96.6250,5,56.94,-7.48,4.46
14.448000,-96.6250,5,56.94,-7.48,4.46
14.458000,-96.3750,5,56.94,-7.48,4.46
14.468000,-97.2500,5,56.94,-7.48,4.46
14.478000,-96.2500,5,56.94,-7.48,4.46
14.488000,-97.0000,5,56.94,-7.48,4.46
14.498000,-96.3750,5,56.94,-7.48,4.46
14.508000,-97.1250,5,56.94,-7.48,4.46
14.518000,-96.1250,5,56.94,-7.48,4.46
14.528000,-96.0000,5,56.94,-7.48,4.46
14.538000,-96.7500,5,56.94,-7.48,4.46
14.548000,-97.1250,5,56.94,-7.48,4.46
14.558000,-96.6250,5,56.94,-7.48,4.46
14.568000,-96.6250,5,56.94,-7.48,4.46
14.578000,-95.2500,5,56.94,-7.48,4.46
14.588000,-95.2500,5,56.94,-7.48,4.46
14.598000,-95.5000,5,56.94,-7.48,4.46
14.608000,-96.1250,5,56.94,-7.48,4.46
14.618000,-95.5000,5,56.94,-7.48,4.46
14.628000,-95.6250,5,56.94,-7.48,4.46
14.638000,-95.2500,5,56.94,-7.48,4.46
14.648000,-95.8750,5,56.94,-7.48,4.46
14.658000,-95.5000,5,56.94,-7.48,4.46
14.668000,-95.7500,5,56.94,-7.48,4.46
14.678000,-95.0000,5,56.94,-7.48,4.46
14.688000,-96.3750,5,56.94,-7.48,4.46
14.698000,-95.8750,5,56.94,-7.48,4.46
14.708000,-95.2500,5,56.94,-7.48,4.46
14.718000,-94.8750,5,56.94,-7.48,4.46
14.728000,-95.0000,5,56.94,-7.48,4.46
14.738000,-95.1250,5,56.94,-7.48,4.46
14.748000,-95.5000,5,56.94,-7.48,4.46
14.758000,-94.6250,5,56.94,-7.48,4.46
14.768000,-94.2500,5,56.94,-7.48,4.46
14.778000,-94.8750,5,56.94,-7.48,4.46
14.788000,-94.2500,7,95.41,-8.58,7.30
14.798000,-93.5000,7,95.41,-8.58,7.30
14.808000,-94.2500,7,95.41,-8.58,7.30
14.818000,-94.2500,7,95.41,-8.58,7.30
14.828000,-94.2500,7,95.41,-8.58,7.30
14.838000,-93.5000,7,95.41,-8.58,7.30
14.848000,-93.3750,7,95.41,-8.58,7.30
14.858000,-94.0000,7,95.41,-8.58,7.30
14.868000,-94.3750,7,95.41,-8.58,7.30
14.878000,-93.5000,7,95.41,-8.58,7.30
14.888000,-94.2500,7,95.41,-8.58,7.30
14.898000,-93.3750,7,95.41,-8.58,7.30
14.908000,-94.0000,7,95.41,-8.58,7.30
14.918000,-93.6250,7,95.41,-8.58,7.30
14.928000,-94.0000,7,95.41,-8.58,7.30
14.938000,-93.2500,7,95.41,-8.58,7.30
14.948000,-93.8750,7,95.41,-8.58,7.30
14.958000,-93.6250,7,95.41,-8.58,7.30
14.968000,-94.0000,7,95.41,-8.58,7.30
14.978000,-93.5000,7,95.41,-8.58,7.30
14.988000,-93.5000,7,95.41,-8.58,7.30
14.998000,-93.7500,7,95.41,-8.58,7.30
15.008000,-93.7500,7,95.41,-8.58,7.30
15.018000,-93.2500,7,95.41,-8.58,7.30
15.028000,-94.0000,7,95.41,-8.58,7.30
15.038000,-93.2500,7,95.41,-8.58,7.30
15.048000,-93.6250,7,95.41,-8.58,7.30
15.058000,-93.1250,7,95.41,-8.58,7.30
15.068000,-93.1250,7,95.41,-8.58,7.30
15.078000,-92.8750,7,95.41,-8.58,7.30
15.088000,-93.7500,7,95.41,-8.58,7.30
15.098000,-92.5000,7,95.41,-8.58,7.30
15.108000,-93.3750,7,95.41,-8.58,7.30
15.118000,-92.8750,7,95.41,-8.58,7.30
15.128000,-92.5000,7,95.41,-8.58,7.30
15.138000,-92.6250,7,95.41,-8.58,7.30
15.148000,-92.5000,7,95.41,-8.58,7.30
15.158000,-92.7500,7,95.41,-8.58,7.30
15.168000,-92.8750,7,95.41,-8.58,7.30
15.178000,-92.6250,7,95.41,-8.58,7.30
15.188000,-92.6250,7,95.41,-8.58,7.30
15.198000,-92.6250,7,95.41,-8.58,7.30
15.208000,-93.0000,7,95.41,-8.58,7.30
15.218000,-92.3750,7,95.41,-8.58,7.30
15.228000,-93.0000,7,95.41,-8.58,7.30
15.238000,-92.3750,7,95.41,-8.58,7.30
15.248000,-92.1250,7,95.41,-8.58,7.30
15.258000,-92.5000,7,95.41,-8.58,7.30
15.268000,-92.3750,7,95.41,-8.58,7.30
15.278000,-92.5000,7,95.41,-8.58,7.30
15.288000,-92.3750,7,95.41,-8.58,7.30
15.298000,-92.0000,7,95.41,-8.58,7.30
15.308000,-92.1250,7,95.41,-8.58,7.30
15.318000,-92.6250,7,95.41,-8.58,7.30
15.328000,-92.5000,7,95.41,-8.58,7.30
15.338000,-92.3750,7,95.41,-8.58,7.30
15.348000,-92.3750,7,95.41,-8.58,7.30
15.358000,-92.1250,7,95.41,-8.58,7.30
15.368000,-91.8750,7,95.41,-8.58,7.30
15.378000,-92.2500,7,95.41,-8.58,7.30
15.388000,-92.5000,7,95.41,-8.58,7.30
15.398000,-91.6250,7,95.41,-8.58,7.30
15.408000,-92.0000,7,95.41,-8.58,7.30
15.418000,-92.1250,7,95.41,-8.58,7.30
15.428000,-92.1250,7,95.41,-8.58,7.30
15.438000,-92.2500,7,95.41,-8.58,7.30
15.448000,-91.7500,7,95.41,-8.58,7.30
15.458000,-91.7500,7,95.41,-8.58,7.30
15.468000,-91.7500,7,95.41,-8.58,7.30
15.478000,-91.6250,7,95.41,-8.58,7.30
15.488000,-91.7500,7,95.41,-8.58,7.30
15.498000,-91.7500,7,95.41,-8.58,7.30
15.508000,-92.2500,7,95.41,-8.58,7.30
15.518000,-91.1250,7,95.41,-8.58,7.30
15.528000,-91.8750,7,95.41,-8.58,7.30
15.538000,-91.5000,7,95.41,-8.58,7.30
15.548000,-91.6250,7,95.41,-8.58,7.30
15.558000,-91.7500,7,95.41,-8.58,7.30
15.568000,-91.2500,7,95.41,-8.58,7.30
15.578000,-91.6250,7,95.41,-8.58,7.30
15.588000,-91.5000,7,95.41,-8.58,7.30
15.598000,-91.6250,7,95.41,-8.58,7.30
15.608000,-91.6250,7,95.41,-8.58,7.30
15.618000,-91.3750,7,95.41,-8.58,7.30
15.628000,-91.2500,7,95.41,-8.58,7.30
15.638000,-91.5000,7,95.41,-8.58,7.30
15.648000,-91.5000,7,95.41,-8.58,7.30
15.658000,-91.1250,7,95.41,-8.58,7.30
15.668000,-91.1250,7,95.41,-8.58,7.30
15.678000,-91.2500,7,95.41,-8.58,7.30
15.688000,-91.1250,7,95.41,-8.58,7.30
15.698000,-90.7500,7,95.41,-8.58,7.30
15.708000,-91.2500,7,95.41,-8.58,7.30
15.718000,-91.2500,7,95.41,-8.58,7.30
15.728000,-91.1250,7,95.41,-8.58,7.30
15.738000,-90.6250,7,95.41,-8.58,7.30
15.748000,-91.1250,7,95.41,-8.58,7.30
15.758000,-90.6250,7,95.41,-8.58,7.30
15.768000,-90.7500,7,95.41,-8.58,7.30
15.778000,-90.5000,7,95.41,-8.58,7.30
15.788000,-90.6250,7,95.41,-8.58,7.30
15.798000,-90.3750,7,95.41,-8.58,7.30
15.808000,-90.6250,7,95.41,-8.58,7.30
15.818000,-90.2500,7,95.41,-8.58,7.30
15.828000,-90.6250,7,95.41,-8.58,7.30
15.838000,-90.6250,7,95.41,-8.58,7.30
15.848000,-90.5000,7,95.41,-8.58,7.30
15.858000,-90.3750,7,95.41,-8.58,7.30
15.868000,-90.7500,7,95.41,-8.58,7.30
15.878000,-90.5000,7,95.41,-8.58,7.30
15.888000,-90.2500,7,95.41,-8.58,7.30
15.898000,-90.5000,7,95.41,-8.58,7.30
15.908000,-90.2500,7,95.41,-8.58,7.30
15.918000,-90.6250,7,95.41,-8.58,7.30
15.928000,-90.2500,7,95.41,-8.58,7.30
15.938000,-90.2500,7,95.41,-8.58,7.30
15.948000,-90.6250,7,95.41,-8.58,7.30
15.958000,-90.2500,7,95.41,-8.58,7.30
15.968000,-90.2500,7,95.41,-8.58,7.30
15.978000,-90.0000,7,95.41,-8.58,7.30
15.988000,-89.8750,7,95.41,-8.58,7.30
15.998000,-90.5000,7,95.41,-8.58,7.30
16.008000,-90.2500,7,95.41,-8.58,7.30
16.018000,-90.3750,7,95.41,-8.58,7.30
16.028000,-89.7500,7,95.41,-8.58,7.30
16.038000,-90.1250,7,95.41,-8.58,7.30
16.048000,-90.5000,7,95.41,-8.58,7.30
16.058000,-90.7500,7,95.41,-8.58,7.30
16.068000,-90.3750,7,95.41,-8.58,7.30
16.078000,-90.6250,7,95.41,-8.58,7.30
16.088000,-89.7500,7,95.41,-8.58,7.30
16.098000,-89.8750,7,95.41,-8.58,7.30
16.108000,-89.8750,7,95.41,-8.58,7.30
16.118000,-90.5000,7,95.41,-8.58,7.30
16.128000,-89.2500,7,95.41,-8.58,7.30
16.138000,-89.8750,7,95.41,-8.58,7.30
16.148000,-90.0000,7,95.41,-8.58,7.30
16.158000,-90.2500,7,95.41,-8.58,7.30
16.168000,-89.7500,7,95.41,-8.58,7.30
16.178000,-90.5000,7,95.41,-8.58,7.30
16.188000,-89.6250,7,95.41,-8.58,7.30
16.198000,-89.7500,7,95.41,-8.58,7.30
16.208000,-89.8750,7,95.41,-8.58,7.30
16.218000,-90.2500,7,95.41,-8.58,7.30
16.228000,-89.5000,7,95.41,-8.58,7.30
16.238000,-89.7500,7,95.41,-8.58,7.30
16.248000,-89.1250,7,95.41,-8.58,7.30
16.258000,-90.0000,7,95.41,-8.58,7.30
16.268000,-89.6250,7,95.41,-8.58,7.30
16.278000,-90.0000,7,95.41,-8.58,7.30
16.288000,-89.0000,7,95.41,-8.58,7.30
16.298000,-89.6250,7,95.41,-8.58,7.30
16.308000,-89.2500,7,95.41,-8.58,7.30
16.318000,-89.8750,7,95.41,-8.58,7.30
16.328000,-89.2500,7,95.41,-8.58,7.30
16.338000,-89.6250,7,95.41,-8.58,7.30
16.348000,-88.8750,7,95.41,-8.58,7.30
16.358000,-89.7500,7,95.41,-8.58,7.30
16.368000,-89.0000,7,95.41,-8.58,7.30
16.378000,-89.0000,7,95.41,-8.58,7.30
16.388000,-89.0000,7,95.41,-8.58,7.30
16.398000,-89.3750,7,95.41,-8.58,7.30
16.408000,-89.5000,7,95.41,-8.58,7.30
16.418000,-89.3750,7,95.41,-8.58,7.30
16.428000,-88.3750,7,95.41,-8.58,7.30
16.438000,-89.3750,7,95.41,-8.58,7.30
16.448000,-89.0000,7,95.41,-8.58,7.30
16.458000,-88.8750,7,95.41,-8.58,7.30
16.468000,-88.8750,7,95.41,-8.58,7.30
16.478000,-89.0000,7,95.41,-8.58,7.30
16.488000,-88.5000,7,95.41,-8.58,7.30
16.498000,-89.7500,7,95.41,-8.58,7.30
16.508000,-88.3750,7,95.41,-8.58,7.30
16.518000,-89.2500,7,95.41,-8.58,7.30
16.528000,-88.3750,7,95.41,-8.58,7.30
16.538000,-88.5000,7,95.41,-8.58,7.30
16.548000,-89.0000,7,95.41,-8.58,7.30
16.558000,-87.7500,7,95.41,-8.58,7.30
16.568000,-88.0000,7,95.41,-8.58,7.30
16.578000,-87.7500,7,95.41,-8.58,7.30
16.588000,-88.0000,7,95.41,-8.58,7.30
16.598000,-88.7500,7,95.41,-8.58,7.30
16.608000,-88.1250,7,95.41,-8.58,7.30
16.618000,-89.0000,7,95.41,-8.58,7.30
16.628000,-87.7500,7,95.41,-8.58,7.30
16.638000,-88.6250,7,95.41,-8.58,7.30
16.648000,-88.1250,7,95.41,-8.58,7.30
16.658000,-88.3750,7,95.41,-8.58,7.30
16.668000,-88.0000,7,95.41,-8.58,7.30
16.678000,-87.5000,7,95.41,-8.58,7.30
16.688000,-88.2500,7,95.41,-8.58,7.30
16.698000,-88.2500,7,95.41,-8.58,7.30
16.708000,-88.0000,7,95.41,-8.58,7.30
16.718000,-88.2500,7,95.41,-8.58,7.30
16.728000,-88.5000,7,95.41,-8.58,7.30
16.738000,-88.6250,7,95.41,-8.58,7.30
16.748000,-88.0000,7,95.41,-8.58,7.30
16.758000,-87.6250,7,95.41,-8.58,7.30
16.768000,-87.2500,7,95.41,-8.58,7.30
16.778000,-87.8750,7,95.41,-8.58,7.30
16.788000,-87.1250,7,95.41,-8.58,7.30
16.798000,-87.6250,7,95.41,-8.58,7.30
16.808000,-87.3750,7,95.41,-8.58,7.30
16.818000,-87.7500,7,95.41,-8.58,7.30
16.828000,-87.0000,7,95.41,-8.58,7.30
16.838000,-87.8750,7,95.41,-8.58,7.30
16.848000,-87.1250,7,95.41,-8.58,7.30
16.858000,-87.7500,7,95.41,-8.58,7.30
16.868000,-87.2500,7,95.41,-8.58,7.30
16.878000,-87.8750,7,95.41,-8.58,7.30
16.888000,-87.1250,7,95.41,-8.58,7.30
16.898000,-87.6250,7,95.41,-8.58,7.30
16.908000,-87.5000,7,95.41,-8.58,7.30
16.918000,-87.2500,7,95.41,-8.58,7.30
16.928000,-87.3750,7,95.41,-8.58,7.30
16.938000,-87.0000,7,95.41,-8.58,7.30
16.948000,-86.5000,7,95.41,-8.58,7.30
16.958000,-86.0000,7,95.41,-8.58,7.30
16.968000,-86.5000,7,95.41,-8.58,7.30
16.978000,-86.5000,7,95.41,-8.58,7.30
16.988000,-86.0000,7,95.41,-8.58,7.30
16.998000,-86.6250,7,95.41,-8.58,7.30
17.008000,-86.2500,7,95.41,-8.58,7.30
17.018000,-86.5000,7,95.41,-8.58,7.30
17.028000,-86.5000,7,95.41,-8.58,7.30
17.038000,-85.7500,7,95.41,-8.58,7.30
17.048000,-86.0000,7,95.41,-8.58,7.30
17.058000,-86.1250,7,95.41,-8.58,7.30
17.068000,-86.5000,7,95.41,-8.58,7.30
17.078000,-86.5000,7,95.41,-8.58,7.30
17.088000,-86.6250,7,95.41,-8.58,7.30
17.098000,-87.5000,7,95.41,-8.58,7.30
17.108000,-86.7500,7,95.41,-8.58,7.30
17.118000,-86.3750,7,95.41,-8.58,7.30
17.128000,-86.6250,7,95.41,-8.58,7.30
17.138000,-86.1250,7,95.41,-8.58,7.30
17.148000,-87.1250,7,95.41,-8.58,7.30
17.158000,-86.6250,7,95.41,-8.58,7.30
17.168000,-86.6250,7,95.41,-8.58,7.30
17.178000,-86.5000,7,95.41,-8.58,7.30
17.188000,-86.6250,7,95.41,-8.58,7.30
17.198000,-86.3750,7,95.41,-8.58,7.30
17.208000,-86.8750,7,95.41,-8.58,7.30
17.218000,-86.2500,7,95.41,-8.58,7.30
17.228000,-85.6250,7,95.41,-8.58,7.30
17.238000,-85.7500,7,95.41,-8.58,7.30
17.248000,-85.6250,7,95.41,-8.58,7.30
17.258000,-86.3750,7,95.41,-8.58,7.30
17.268000,-86.1250,7,95.41,-8.58,7.30
17.278000,-86.0000,7,95.41,-8.58,7.30
17.288000,-85.7500,7,95.41,-8.58,7.30
17.298000,-85.8750,7,95.41,-8.58,7.30
17.308000,-85.8750,7,95.41,-8.58,7.30
17.318000,-86.3750,7,95.41,-8.58,7.30
17.328000,-85.8750,7,95.41,-8.58,7.30
17.338000,-86.1250,7,95.41,-8.58,7.30
17.348000,-86.1250,7,95.41,-8.58,7.30
17.358000,-86.1250,7,95.41,-8.58,7.30
17.368000,-86.2500,7,95.41,-8.58,7.30
17.378000,-86.0000,7,95.41,-8.58,7.30
17.388000,-86.2500,7,95.41,-8.58,7.30
17.398000,-86.5000,7,95.41,-8.58,7.30
17.408000,-86.1250,7,95.41,-8.58,7.30
17.418000,-86.7500,7,95.41,-8.58,7.30
17.428000,-86.6250,7,95.41,-8.58,7.30
17.438000,-86.2500,7,95.41,-8.58,7.30
17.448000,-86.7500,7,95.41,-8.58,7.30
17.458000,-86.6250,7,95.41,-8.58,7.30
17.468000,-86.3750,7,95.41,-8.58,7.30
17.478000,-86.8750,7,95.41,-8.58,7.30
17.488000,-86.5000,7,95.41,-8.58,7.30
17.498000,-86.1250,7,95.41,-8.58,7.30
17.508000,-86.7500,7,95.41,-8.58,7.30
17.518000,-86.1250,7,95.41,-8.58,7.30
17.528000,-87.0000,7,95.41,-8.58,7.30
17.538000,-86.3750,7,95.41,-8.58,7.30
17.548000,-86.0000,7,95.41,-8.58,7.30
17.558000,-86.5000,7,95.41,-8.58,7.30
17.568000,-86.3750,7,95.41,-8.58,7.30
17.578000,-86.1250,7,95.41,-8.58,7.30
17.588000,-85.6250,7,95.41,-8.58,7.30
17.598000,-85.7500,7,95.41,-8.58,7.30
17.608000,-86.0000,7,95.41,-8.58,7.30
17.618000,-86.2500,7,95.41,-8.58,7.30
17.628000,-85.6250,7,95.41,-8.58,7.30
17.638000,-85.7500,7,95.41,-8.58,7.30
17.648000,-86.0000,7,95.41,-8.58,7.30
17.658000,-85.6250,7,95.41,-8.58,7.30
17.668000,-86.1250,7,95.41,-8.58,7.30
17.678000,-85.8750,7,95.41,-8.58,7.30
17.688000,-85.8750,7,95.41,-8.58,7.30
17.698000,-85.0000,7,95.41,-8.58,7.30
17.708000,-85.2500,7,95.41,-8.58,7.30
17.718000,-84.8750,7,95.41,-8.58,7.30
17.728000,-84.8750,7,95.41,-8.58,7.30
17.738000,-85.0000,7,95.41,-8.58,7.30
17.748000,-85.8750,7,95.41,-8.58,7.30
17.758000,-85.7500,7,95.41,-8.58,7.30
17.768000,-84.8750,7,95.41,-8.58,7.30
17.778000,-86.0000,7,95.41,-8.58,7.30
17.788000,-85.0000,7,95.41,-8.58,7.30
17.798000,-85.5000,7,95.41,-8.58,7.30
17.808000,-85.3750,7,95.41,-8.58,7.30
17.818000,-85.1250,7,95.41,-8.58,7.30
17.828000,-85.6250,7,95.41,-8.58,7.30
17.838000,-84.5000,7,95.41,-8.58,7.30
17.848000,-85.2500,7,95.41,-8.58,7.30
17.858000,-84.5000,7,95.41,-8.58,7.30
17.868000,-84.7500,7,95.41,-8.58,7.30
17.878000,-85.2500,7,95.41,-8.58,7.30
17.888000,-84.3750,7,95.41,-8.58,7.30
17.898000,-85.1250,7,95.41,-8.58,7.30
17.908000,-85.0000,7,95.41,-8.58,7.30
17.918000,-85.2500,7,95.41,-8.58,7.30
17.928000,-85.6250,7,95.41,-8.58,7.30
17.938000,-85.6250,7,95.41,-8.58,7.30
17.948000,-85.1250,7,95.41,-8.58,7.30
17.958000,-85.1250,7,95.41,-8.58,7.30
17.968000,-85.1250,7,95.41,-8.58,7.30
17.978000,-85.1250,7,95.41,-8.58,7.30
17.988000,-85.3750,7,95.41,-8.58,7.30
17.998000,-86.1250,7,95.41,-8.58,7.30
18.008000,-85.7500,7,95.41,-8.58,7.30
18.018000,-86.3750,7,95.41,-8.58,7.30
18.028000,-85.0000,7,95.41,-8.58,7.30
18.038000,-85.3750,7,95.41,-8.58,7.30
18.048000,-85.3750,7,95.41,-8.58,7.30
18.058000,-86.1250,7,95.41,-8.58,7.30
18.068000,-85.6250,7,95.41,-8.58,7.30
18.078000,-85.5000,7,95.41,-8.58,7.30
18.088000,-86.2500,7,95.41,-8.58,7.30
18.098000,-85.5000,7,95.41,-8.58,7.30
18.108000,-85.7500,7,95.41,-8.58,7.30
18.118000,-85.5000,7,95.41,-8.58,7.30
18.128000,-85.7500,7,95.41,-8.58,7.30
18.138000,-86.2500,7,95.41,-8.58,7.30
18.148000,-84.8750,7,95.41,-8.58,7.30
18.158000,-85.8750,7,95.41,-8.58,7.30
18.168000,-85.6250,7,95.41,-8.58,7.30
18.178000,-86.0000,7,95.41,-8.58,7.30
18.188000,-85.5000,7,95.41,-8.58,7.30
18.198000,-84.8750,7,95.41,-8.58,7.30
18.208000,-85.2500,7,95.41,-8.58,7.30
18.218000,-85.5000,7,95.41,-8.58,7.30
18.228000,-85.2500,7,95.41,-8.58,7.30
18.238000,-85.2500,7,95.41,-8.58,7.30
18.248000,-85.7500,7,95.41,-8.58,7.30
18.258000,-85.5000,7,95.41,-8.58,7.30
18.268000,-85.6250,7,95.41,-8.58,7.30
18.278000,-84.8750,7,95.41,-8.58,7.30
18.288000,-85.7500,7,95.41,-8.58,7.30
18.298000,-85.5000,7,95.41,-8.58,7.30
18.308000,-86.0000,7,95.41,-8.58,7.30
18.318000,-84.8750,7,95.41,-8.58,7.30
18.328000,-86.0000,7,95.41,-8.58,7.30
18.338000,-85.0000,7,95.41,-8.58,7.30
18.348000,-85.6250,7,95.41,-8.58,7.30
18.358000,-84.7500,7,95.41,-8.58,7.30
18.368000,-85.1250,7,95.41,-8.58,7.30
18.378000,-85.6250,7,95.41,-8.58,7.30
18.388000,-85.0000,7,95.41,-8.58,7.30
18.398000,-85.5000,7,95.41,-8.58,7.30
18.408000,-84.6250,7,95.41,-8.58,7.30
18.418000,-85.2500,7,95.41,-8.58,7.30
18.428000,-84.6250,7,95.41,-8.58,7.30
18.438000,-85.1250,7,95.41,-8.58,7.30
18.448000,-84.3750,7,95.41,-8.58,7.30
18.458000,-85.1250,7,95.41,-8.58,7.30
18.468000,-84.6250,7,95.41,-8.58,7.30
18.478000,-85.2500,7,95.41,-8.58,7.30
18.488000,-85.1250,7,95.41,-8.58,7.30
18.498000,-85.1250,7,95.41,-8.58,7.30
18.508000,-84.8750,7,95.41,-8.58,7.30
18.518000,-84.6250,7,95.41,-8.58,7.30
18.528000,-84.2500,7,95.41,-8.58,7.30
18.538000,-84.6250,7,95.41,-8.58,7.30
18.548000,-84.7500,7,95.41,-8.58,7.30
18.558000,-85.1250,7,95.41,-8.58,7.30
18.568000,-84.5000,7,95.41,-8.58,7.30
18.578000,-84.7500,7,95.41,-8.58,7.30
18.588000,-84.2500,7,95.41,-8.58,7.30
18.598000,-83.8750,7,95.41,-8.58,7.30
18.608000,-85.0000,7,95.41,-8.58,7.30
18.618000,-85.2500,7,95.41,-8.58,7.30
18.628000,-85.1250,7,95.41,-8.58,7.30
18.638000,-84.8750,7,95.41,-8.58,7.30
18.648000,-85.8750,7,95.41,-8.58,7.30
18.658000,-84.5000,7,95.41,-8.58,7.30
18.668000,-84.8750,7,95.41,-8.58,7.30
18.678000,-85.1250,7,95.41,-8.58,7.30
18.688000,-85.2500,7,95.41,-8.58,7.30
18.698000,-84.5000,7,95.41,-8.58,7.30
18.708000,-85.8750,7,95.41,-8.58,7.30
18.718000,-83.7500,7,95.41,-8.58,7.30
18.728000,-85.0000,7,95.41,-8.58,7.30
18.738000,-84.0000,7,95.41,-8.58,7.30
18.748000,-84.8750,9,154.64,-4.25,4.48
18.758000,-84.0000,9,154.64,-4.25,4.48
18.768000,-84.3750,9,154.64,-4.25,4.48
18.778000,-83.8750,9,154.64,-4.25,4.48
18.788000,-84.3750,9,154.64,-4.25,4.48
18.798000,-83.8750,9,154.64,-4.25,4.48
18.808000,-84.6250,9,154.64,-4.25,4.48
18.818000,-84.0000,9,154.64,-4.25,4.48
18.828000,-84.2500,9,154.64,-4.25,4.48
18.838000,-83.7500,9,154.64,-4.25,4.48
18.848000,-84.3750,9,154.64,-4.25,4.48
18.858000,-83.6250,9,154.64,-4.25,4.48
18.868000,-84.2500,9,154.64,-4.25,4.48
18.878000,-83.7500,9,154.64,-4.25,4.48
18.888000,-84.3750,9,154.64,-4.25,4.48
18.898000,-83.8750,9,154.64,-4.25,4.48
18.908000,-84.3750,9,154.64,-4.25,4.48
18.918000,-84.0000,9,154.64,-4.25,4.48
18.928000,-84.6250,9,154.64,-4.25,4.48
18.938000,-83.7500,9,154.64,-4.25,4.48
18.948000,-84.8750,9,154.64,-4.25,4.48
18.958000,-83.7500,9,154.64,-4.25,4.48
18.968000,-84.7500,9,154.64,-4.25,4.48
18.978000,-83.5000,9,154.64,-4.25,4.48
18.988000,-83.8750,9,154.64,-4.25,4.48
18.998000,-83.1250,9,154.64,-4.25,4.48
19.008000,-84.1250,9,154.64,-4.25,4.48
19.018000,-83.5000,9,154.64,-4.25,4.48
19.028000,-83.6250,9,154.64,-4.25,4.48
19.038000,-83.3750,9,154.64,-4.25,4.48
19.048000,-83.6250,9,154.64,-4.25,4.48
19.058000,-83.6250,9,154.64,-4.25,4.48
19.068000,-83.5000,9,154.64,-4.25,4.48
19.078000,-83.3750,9,154.64,-4.25,4.48
19.088000,-83.6250,9,154.64,-4.25,4.48
19.098000,-84.0000,9,154.64,-4.25,4.48
19.108000,-84.5000,9,154.64,-4.25,4.48
19.118000,-84.2500,9,154.64,-4.25,4.48
19.128000,-84.1250,9,154.64,-4.25,4.48
19.138000,-83.1250,9,154.64,-4.25,4.48
19.148000,-84.7500,9,154.64,-4.25,4.48
19.158000,-84.1250,9,154.64,-4.25,4.48
19.168000,-84.6250,9,154.64,-4.25,4.48
19.178000,-83.8750,9,154.64,-4.25,4.48
19.188000,-84.8750,9,154.64,-4.25,4.48
19.198000,-84.0000,9,154.64,-4.25,4.48
19.208000,-84.5000,9,154.64,-4.25,4.48
19.218000,-84.6250,9,154.64,-4.25,4.48
19.228000,-84.5000,9,154.64,-4.25,4.48
19.238000,-83.7500,9,154.64,-4.25,4.48
19.248000,-84.5000,9,154.64,-4.25,4.48
19.258000,-84.0000,9,154.64,-4.25,4.48
19.268000,-84.8750,9,154.64,-4.25,4.48
19.278000,-84.3750,9,154.64,-4.25,4.48
19.288000,-84.7500,9,154.64,-4.25,4.48
19.298000,-84.5000,9,154.64,-4.25,4.48
19.308000,-84.5000,9,154.64,-4.25,4.48
19.318000,-84.7500,9,154.64,-4.25,4.48
19.328000,-84.6250,9,154.64,-4.25,4.48
19.338000,-84.2500,9,154.64,-4.25,4.48
19.348000,-84.3750,9,154.64,-4.25,4.48
19.358000,-84.0000,9,154.64,-4.25,4.48
19.368000,-84.2500,9,154.64,-4.25,4.48
19.378000,-85.0000,9,154.64,-4.25,4.48
19.388000,-84.3750,9,154.64,-4.25,4.48
19.398000,-84.6250,9,154.64,-4.25,4.48
19.408000,-84.8750,9,154.64,-4.25,4.48
19.418000,-85.2500,9,154.64,-4.25,4.48
19.428000,-84.8750,9,154.64,-4.25,4.48
19.438000,-84.8750,9,154.64,-4.25,4.48
19.448000,-84.7500,9,154.64,-4.25,4.48
19.458000,-84.8750,9,154.64,-4.25,4.48
19.468000,-84.5000,9,154.64,-4.25,4.48
19.478000,-85.0000,9,154.64,-4.25,4.48
19.488000,-85.0000,9,154.64,-4.25,4.48
19.498000,-85.0000,9,154.64,-4.25,4.48
19.508000,-85.0000,9,154.64,-4.25,4.48
19.518000,-85.1250,9,154.64,-4.25,4.48
19.528000,-85.2500,9,154.64,-4.25,4.48
19.538000,-85.2500,9,154.64,-4.25,4.48
19.548000,-84.6250,9,154.64,-4.25,4.48
19.558000,-85.3750,9,154.64,-4.25,4.48
19.568000,-84.8750,9,154.64,-4.25,4.48
19.578000,-85.3750,9,154.64,-4.25,4.48
19.588000,-84.6250,9,154.64,-4.25,4.48
19.598000,-85.1250,9,154.64,-4.25,4.48
19.608000,-84.8750,9,154.64,-4.25,4.48
19.618000,-85.5000,9,154.64,-4.25,4.48
19.628000,-84.6250,9,154.64,-4.25,4.48
19.638000,-85.0000,9,154.64,-4.25,4.48
19.648000,-84.5000,9,154.64,-4.25,4.48
19.658000,-85.2500,9,154.64,-4.25,4.48
19.668000,-85.0000,9,154.64,-4.25,4.48
19.678000,-85.1250,9,154.64,-4.25,4.48
19.688000,-84.7500,9,154.64,-4.25,4.48
19.698000,-85.6250,9,154.64,-4.25,4.48
19.708000,-84.8750,9,154.64,-4.25,4.48
19.718000,-85.5000,9,154.64,-4.25,4.48
19.728000,-84.7500,9,154.64,-4.25,4.48
19.738000,-85.5000,9,154.64,-4.25,4.48
19.748000,-84.8750,9,154.64,-4.25,4.48
19.758000,-85.5000,9,154.64,-4.25,4.48
19.768000,-84.3750,9,154.64,-4.25,4.48
19.778000,-85.2500,9,154.64,-4.25,4.48
19.788000,-84.7500,9,154.64,-4.25,4.48
19.798000,-85.6250,9,154.64,-4.25,4.48
19.808000,-85.0000,9,154.64,-4.25,4.48
19.818000,-85.8750,9,154.64,-4.25,4.48
19.828000,-84.6250,9,154.64,-4.25,4.48
19.838000,-85.6250,9,154.64,-4.25,4.48
19.848000,-84.7500,9,154.64,-4.25,4.48
19.858000,-85.7500,9,154.64,-4.25,4.48
19.868000,-85.0000,9,154.64,-4.25,4.48
19.878000,-86.1250,9,154.64,-4.25,4.48
19.888000,-84.8750,9,154.64,-4.25,4.48
19.898000,-85.6250,9,154.64,-4.25,4.48
19.908000,-85.1250,9,154.64,-4.25,4.48
19.918000,-85.6250,9,154.64,-4.25,4.48
19.928000,-84.7500,9,154.64,-4.25,4.48
19.938000,-85.5000,9,154.64,-4.25,4.48
19.948000,-84.8750,9,154.64,-4.25,4.48
19.958000,-85.6250,9,154.64,-4.25,4.48
19.968000,-84.8750,9,154.64,-4.25,4.48
19.978000,-85.8750,9,154.64,-4.25,4.48
19.988000,-85.1250,9,154.64,-4.25,4.48
19.998000,-85.5000,9,154.64,-4.25,4.48
20.008000,-85.2500,9,154.64,-4.25,4.48
20.018000,-85.5000,9,154.64,-4.25,4.48
20.028000,-84.8750,9,154.64,-4.25,4.48
20.038000,-85.6250,9,154.64,-4.25,4.48
20.048000,-85.0000,9,154.64,-4.25,4.48
20.058000,-85.6250,9,154.64,-4.25,4.48
20.068000,-85.2500,9,154.64,-4.25,4.48
20.078000,-85.7500,9,154.64,-4.25,4.48
20.088000,-85.3750,9,154.64,-4.25,4.48
20.098000,-85.7500,9,154.64,-4.25,4.48
20.108000,-85.3750,9,154.64,-4.25,4.48
20.118000,-85.8750,9,154.64,-4.25,4.48
20.128000,-85.3750,9,154.64,-4.25,4.48
20.138000,-85.7500,9,154.64,-4.25,4.48
20.148000,-85.6250,9,154.64,-4.25,4.48
20.158000,-85.7500,9,154.64,-4.25,4.48
20.168000,-85.3750,9,154.64,-4.25,4.48
20.178000,-86.1250,9,154.64,-4.25,4.48
20.188000,-85.3750,9,154.64,-4.25,4.48
20.198000,-86.2500,9,154.64,-4.25,4.48
20.208000,-85.3750,9,154.64,-4.25,4.48
20.218000,-85.6250,9,154.64,-4.25,4.48
20.228000,-85.2500,9,154.64,-4.25,4.48
20.238000,-86.0000,9,154.64,-4.25,4.48
20.248000,-85.6250,9,154.64,-4.25,4.48
20.258000,-85.2500,9,154.64,-4.25,4.48
20.268000,-85.3750,9,154.64,-4.25,4.48
20.278000,-86.1250,9,154.64,-4.25,4.48
20.288000,-84.8750,9,154.64,-4.25,4.48
20.298000,-86.0000,9,154.64,-4.25,4.48
20.308000,-85.1250,9,154.64,-4.25,4.48
20.318000,-86.2500,9,154.64,-4.25,4.48
20.328000,-85.1250,9,154.64,-4.25,4.48
20.338000,-85.5000,9,154.64,-4.25,4.48
20.348000,-84.6250,9,154.64,-4.25,4.48
20.358000,-85.3750,9,154.64,-4.25,4.48
20.368000,-85.6250,9,154.64,-4.25,4.48
20.378000,-85.3750,9,154.64,-4.25,4.48
20.388000,-85.1250,9,154.64,-4.25,4.48
20.398000,-85.6250,9,154.64,-4.25,4.48
20.408000,-85.2500,9,154.64,-4.25,4.48
20.418000,-85.1250,9,154.64,-4.25,4.48
20.428000,-85.1250,9,154.64,-4.25,4.48
20.438000,-85.1250,9,154.64,-4.25,4.48
20.448000,-85.6250,9,154.64,-4.25,4.48
20.458000,-85.5000,9,154.64,-4.25,4.48
20.468000,-85.3750,9,154.64,-4.25,4.48
20.478000,-85.5000,9,154.64,-4.25,4.48
20.488000,-85.2500,9,154.64,-4.25,4.48
20.498000,-85.0000,9,154.64,-4.25,4.48
20.508000,-85.6250,9,154.64,-4.25,4.48
20.518000,-86.1250,9,154.64,-4.25,4.48
20.528000,-85.3750,9,154.64,-4.25,4.48
20.538000,-85.0000,9,154.64,-4.25,4.48
20.548000,-86.0000,9,154.64,-4.25,4.48
20.558000,-84.8750,9,154.64,-4.25,4.48
20.568000,-84.6250,9,154.64,-4.25,4.48
20.578000,-85.5000,9,154.64,-4.25,4.48
20.588000,-85.1250,9,154.64,-4.25,4.48
20.598000,-85.1250,9,154.64,-4.25,4.48
20.608000,-85.5000,9,154.64,-4.25,4.48
20.618000,-85.6250,9,154.64,-4.25,4.48
20.628000,-85.8750,9,154.64,-4.25,4.48
20.638000,-86.1250,9,154.64,-4.25,4.48
20.648000,-85.3750,9,154.64,-4.25,4.48
20.658000,-86.1250,9,154.64,-4.25,4.48
20.668000,-85.0000,9,154.64,-4.25,4.48
20.678000,-85.6250,9,154.64,-4.25,4.48
20.688000,-85.1250,9,154.64,-4.25,4.48
20.698000,-86.2500,9,154.64,-4.25,4.48
20.708000,-86.1250,9,154.64,-4.25,4.48
20.718000,-85.6250,9,154.64,-4.25,4.48
20.728000,-85.3750,9,154.64,-4.25,4.48
20.738000,-85.8750,9,154.64,-4.25,4.48
20.748000,-86.5000,9,154.64,-4.25,4.48
20.758000,-86.2500,9,154.64,-4.25,4.48
20.768000,-85.5000,9,154.64,-4.25,4.48
20.778000,-85.5000,9,154.64,-4.25,4.48
20.788000,-85.8750,9,154.64,-4.25,4.48
20.798000,-85.6250,9,154.64,-4.25,4.48
20.808000,-85.5000,9,154.64,-4.25,4.48
20.818000,-85.7500,9,154.64,-4.25,4.48
20.828000,-85.8750,9,154.64,-4.25,4.48
20.838000,-85.8750,9,154.64,-4.25,4.48
20.848000,-85.5000,9,154.64,-4.25,4.48
20.858000,-86.0000,9,154.64,-4.25,4.48
20.868000,-85.7500,9,154.64,-4.25,4.48
20.878000,-86.0000,9,154.64,-4.25,4.48
20.888000,-85.2500,9,154.64,-4.25,4.48
20.898000,-86.8750,9,154.64,-4.25,4.48
20.908000,-85.5000,9,154.64,-4.25,4.48
20.918000,-86.0000,9,154.64,-4.25,4.48
20.928000,-86.2500,9,154.64,-4.25,4.48
20.938000,-85.7500,9,154.64,-4.25,4.48
20.948000,-86.5000,9,154.64,-4.25,4.48
20.958000,-85.3750,9,154.64,-4.25,4.48
20.968000,-86.3750,9,154.64,-4.25,4.48
20.978000,-85.6250,9,154.64,-4.25,4.48
20.988000,-85.6250,9,154.64,-4.25,4.48
20.998000,-86.0000,9,154.64,-4.25,4.48
21.008000,-85.5000,9,154.64,-4.25,4.48
21.018000,-85.5000,9,154.64,-4.25,4.48
21.028000,-85.3750,9,154.64,-4.25,4.48
21.038000,-85.8750,9,154.64,-4.25,4.48
21.048000,-85.7500,9,154.64,-4.25,4.48
21.058000,-85.2500,9,154.64,-4.25,4.48
21.068000,-85.5000,9,154.64,-4.25,4.48
21.078000,-85.2500,9,154.64,-4.25,4.48
21.088000,-85.8750,9,154.64,-4.25,4.48
21.098000,-85.5000,9,154.64,-4.25,4.48
21.108000,-85.3750,9,154.64,-4.25,4.48
21.118000,-85.3750,9,154.64,-4.25,4.48
21.128000,-85.1250,9,154.64,-4.25,4.48
21.138000,-84.7500,9,154.64,-4.25,4.48
21.148000,-85.1250,9,154.64,-4.25,4.48
21.158000,-84.3750,9,154.64,-4.25,4.48
21.168000,-84.7500,9,154.64,-4.25,4.48
21.178000,-84.5000,9,154.64,-4.25,4.48
21.188000,-85.0000,9,154.64,-4.25,4.48
21.198000,-84.6250,9,154.64,-4.25,4.48
21.208000,-85.5000,9,154.64,-4.25,4.48
21.218000,-85.1250,9,154.64,-4.25,4.48
21.228000,-85.1250,9,154.64,-4.25,4.48
21.238000,-85.2500,9,154.64,-4.25,4.48
21.248000,-84.6250,9,154.64,-4.25,4.48
21.258000,-84.3750,9,154.64,-4.25,4.48
21.268000,-85.1250,9,154.64,-4.25,4.48
21.278000,-84.8750,9,154.64,-4.25,4.48
21.288000,-84.6250,9,154.64,-4.25,4.48
21.298000,-83.8750,9,154.64,-4.25,4.48
21.308000,-84.5000,9,154.64,-4.25,4.48
21.318000,-84.3750,9,154.64,-4.25,4.48
21.328000,-84.0000,9,154.64,-4.25,4.48
21.338000,-84.2500,9,154.64,-4.25,4.48
21.348000,-84.6250,9,154.64,-4.25,4.48
21.358000,-85.0000,9,154.64,-4.25,4.48
21.368000,-84.6250,9,154.64,-4.25,4.48
21.378000,-85.0000,9,154.64,-4.25,4.48
21.388000,-84.7500,9,154.64,-4.25,4.48
21.398000,-83.3750,9,154.64,-4.25,4.48
21.408000,-84.6250,9,154.64,-4.25,4.48
21.418000,-84.6250,9,154.64,-4.25,4.48
21.428000,-84.2500,9,154.64,-4.25,4.48
21.438000,-84.1250,9,154.64,-4.25,4.48
21.448000,-84.3750,9,154.64,-4.25,4.48
21.458000,-83.7500,9,154.64,-4.25,4.48
21.468000,-84.2500,9,154.64,-4.25,4.48
21.478000,-84.1250,9,154.64,-4.25,4.48
21.488000,-84.1250,9,154.64,-4.25,4.48
21.498000,-84.1250,9,154.64,-4.25,4.48
21.508000,-84.5000,9,154.64,-4.25,4.48
21.518000,-84.0000,9,154.64,-4.25,4.48
21.528000,-84.1250,9,154.64,-4.25,4.48
21.538000,-83.7500,9,154.64,-4.25,4.48
21.548000,-84.1250,9,154.64,-4.25,4.48
21.558000,-83.3750,9,154.64,-4.25,4.48
21.568000,-84.6250,9,154.64,-4.25,4.48
21.578000,-84.3750,9,154.64,-4.25,4.48
21.588000,-84.0000,9,154.64,-4.25,4.48
21.598000,-84.5000,9,154.64,-4.25,4.48
21.608000,-84.6250,9,154.64,-4.25,4.48
21.618000,-84.2500,9,154.64,-4.25,4.48
21.628000,-84.1250,9,154.64,-4.25,4.48
21.638000,-84.8750,9,154.64,-4.25,4.48
21.648000,-84.0000,9,154.64,-4.25,4.48
21.658000,-84.6250,9,154.64,-4.25,4.48
21.668000,-83.7500,9,154.64,-4.25,4.48
21.678000,-84.7500,9,154.64,-4.25,4.48
21.688000,-84.8750,9,154.64,-4.25,4.48
21.698000,-85.1250,9,154.64,-4.25,4.48
21.708000,-84.8750,9,154.64,-4.25,4.48
21.718000,-85.0000,9,154.64,-4.25,4.48
21.728000,-85.0000,9,154.64,-4.25,4.48
21.738000,-84.2500,9,154.64,-4.25,4.48
21.748000,-85.0000,9,154.64,-4.25,4.48
21.758000,-84.6250,9,154.64,-4.25,4.48
21.768000,-84.5000,9,154.64,-4.25,4.48
21.778000,-85.1250,9,154.64,-4.25,4.48
21.788000,-84.6250,9,154.64,-4.25,4.48
21.798000,-84.6250,9,154.64,-4.25,4.48
21.808000,-84.5000,9,154.64,-4.25,4.48
21.818000,-84.7500,9,154.64,-4.25,4.48
21.828000,-84.5000,9,154.64,-4.25,4.48
21.838000,-85.1250,9,154.64,-4.25,4.48
21.848000,-84.5000,9,154.64,-4.25,4.48
21.858000,-85.0000,9,154.64,-4.25,4.48
21.868000,-85.3750,9,154.64,-4.25,4.48
21.878000,-84.5000,9,154.64,-4.25,4.48
21.888000,-84.7500,9,154.64,-4.25,4.48
21.898000,-85.1250,9,154.64,-4.25,4.48
21.908000,-85.2500,9,154.64,-4.25,4.48
21.918000,-84.7500,9,154.64,-4.25,4.48
21.928000,-84.8750,9,154.64,-4.25,4.48
21.938000,-84.8750,9,154.64,-4.25,4.48
21.948000,-84.6250,9,154.64,-4.25,4.48
21.958000,-84.5000,9,154.64,-4.25,4.48
21.968000,-85.0000,9,154.64,-4.25,4.48
21.978000,-84.8750,9,154.64,-4.25,4.48
21.988000,-85.0000,9,154.64,-4.25,4.48
21.998000,-84.7500,9,154.64,-4.25,4.48
22.008000,-85.5000,9,154.64,-4.25,4.48
22.018000,-85.3750,9,154.64,-4.25,4.48
22.028000,-84.3750,9,154.64,-4.25,4.48
22.038000,-84.3750,9,154.64,-4.25,4.48
22.048000,-85.3750,9,154.64,-4.25,4.48
22.058000,-85.0000,9,154.64,-4.25,4.48
22.068000,-85.2500,9,154.64,-4.25,4.48
22.078000,-84.8750,9,154.64,-4.25,4.48
22.088000,-84.5000,9,154.64,-4.25,4.48
22.098000,-85.6250,9,154.64,-4.25,4.48
22.108000,-84.5000,9,154.64,-4.25,4.48
22.118000,-85.2500,9,154.64,-4.25,4.48
22.128000,-85.2500,9,154.64,-4.25,4.48
22.138000,-85.5000,9,154.64,-4.25,4.48
22.148000,-85.5000,9,154.64,-4.25,4.48
22.158000,-84.3750,9,154.64,-4.25,4.48
22.168000,-85.0000,9,154.64,-4.25,4.48
22.178000,-85.0000,9,154.64,-4.25,4.48
22.188000,-85.1250,9,154.64,-4.25,4.48
22.198000,-84.8750,9,154.64,-4.25,4.48
22.208000,-85.3750,9,154.64,-4.25,4.48
22.218000,-84.8750,9,154.64,-4.25,4.48
22.228000,-85.2500,9,154.64,-4.25,4.48
22.238000,-85.0000,9,154.64,-4.25,4.48
22.248000,-85.6250,9,154.64,-4.25,4.48
22.258000,-85.3750,9,154.64,-4.25,4.48
22.268000,-85.6250,9,154.64,-4.25,4.48
22.278000,-85.3750,9,154.64,-4.25,4.48
22.288000,-85.3750,9,154.64,-4.25,4.48
22.298000,-84.3750,9,154.64,-4.25,4.48
22.308000,-84.8750,9,154.64,-4.25,4.48
22.318000,-85.0000,9,154.64,-4.25,4.48
22.328000,-85.2500,9,154.64,-4.25,4.48
22.338000,-85.3750,9,154.64,-4.25,4.48
22.348000,-85.0000,9,154.64,-4.25,4.48
22.358000,-85.5000,9,154.64,-4.25,4.48
22.368000,-84.6250,9,154.64,-4.25,4.48
22.378000,-85.3750,9,154.64,-4.25,4.48
22.388000,-84.7500,9,154.64,-4.25,4.48
22.398000,-85.5000,9,154.64,-4.25,4.48
22.408000,-84.5000,9,154.64,-4.25,4.48
22.418000,-85.0000,9,154.64,-4.25,4.48
22.428000,-84.8750,9,154.64,-4.25,4.48
22.438000,-85.5000,9,154.64,-4.25,4.48
22.448000,-84.1250,9,154.64,-4.25,4.48
22.458000,-85.7500,9,154.64,-4.25,4.48
22.468000,-84.6250,9,154.64,-4.25,4.48
22.478000,-85.2500,9,154.64,-4.25,4.48
22.488000,-84.5000,9,154.64,-4.25,4.48
22.498000,-84.5000,9,154.64,-4.25,4.48
22.508000,-84.5000,9,154.64,-4.25,4.48
22.518000,-86.1250,9,154.64,-4.25,4.48
22.528000,-86.1250,9,154.64,-4.25,4.48
22.538000,-84.6250,9,154.64,-4.25,4.48
22.548000,-85.3750,9,154.64,-4.25,4.48
22.558000,-85.3750,9,154.64,-4.25,4.48
22.568000,-85.5000,9,154.64,-4.25,4.48
22.578000,-85.7500,9,154.64,-4.25,4.48
22.588000,-86.2500,9,154.64,-4.25,4.48
22.598000,-84.6250,9,154.64,-4.25,4.48
22.608000,-84.8750,9,154.64,-4.25,4.48
22.618000,-85.2500,9,154.64,-4.25,4.48
22.628000,-86.5000,11,154.64,-18.64,21.38
22.638000,-84.7500,11,154.64,-18.64,21.38
22.648000,-85.3750,11,154.64,-18.64,21.38
22.658000,-84.7500,11,154.64,-18.64,21.38
22.668000,-85.2500,11,154.64,-18.64,21.38
22.678000,-84.7500,11,154.64,-18.64,21.38
22.688000,-85.5000,11,154.64,-18.64,21.38
22.698000,-84.5000,11,154.64,-18.64,21.38
22.708000,-85.3750,11,154.64,-18.64,21.38
22.718000,-84.7500,11,154.64,-18.64,21.38
22.728000,-85.2500,11,154.64,-18.64,21.38
22.738000,-84.3750,11,154.64,-18.64,21.38
22.748000,-85.2500,11,154.64,-18.64,21.38
22.758000,-84.5000,11,154.64,-18.64,21.38
22.768000,-85.1250,11,154.64,-18.64,21.38
22.778000,-84.5000,11,154.64,-18.64,21.38
22.788000,-85.3750,11,154.64,-18.64,21.38
22.798000,-84.5000,11,154.64,-18.64,21.38
22.808000,-85.2500,11,154.64,-18.64,21.38
22.818000,-84.3750,11,154.64,-18.64,21.38
22.828000,-85.1250,11,154.64,-18.64,21.38
22.838000,-84.6250,11,154.64,-18.64,21.38
22.848000,-84.8750,11,154.64,-18.64,21.38
22.858000,-84.7500,11,154.64,-18.64,21.38
22.868000,-85.0000,11,154.64,-18.64,21.38
22.878000,-84.3750,11,154.64,-18.64,21.38
22.888000,-85.0000,11,154.64,-18.64,21.38
22.898000,-84.6250,11,154.64,-18.64,21.38
22.908000,-84.5000,11,154.64,-18.64,21.38
22.918000,-84.6250,11,154.64,-18.64,21.38
22.928000,-84.8750,11,154.64,-18.64,21.38
22.938000,-84.6250,11,154.64,-18.64,21.38
22.948000,-85.0000,11,154.64,-18.64,21.38
22.958000,-84.0000,11,154.64,-18.64,21.38
22.968000,-85.1250,11,154.64,-18.64,21.38
22.978000,-84.0000,11,154.64,-18.64,21.38
22.988000,-84.8750,11,154.64,-18.64,21.38
22.998000,-84.3750,11,154.64,-18.64,21.38
23.008000,-85.0000,11,154.64,-18.64,21.38
23.018000,-84.1250,11,154.64,-18.64,21.38
23.028000,-85.1250,11,154.64,-18.64,21.38
23.038000,-83.8750,11,154.64,-18.64,21.38
23.048000,-84.7500,11,154.64,-18.64,21.38
23.058000,-84.5000,11,154.64,-18.64,21.38
23.068000,-84.7500,11,154.64,-18.64,21.38
23.078000,-84.5000,11,154.64,-18.64,21.38
23.088000,-85.0000,11,154.64,-18.64,21.38
23.098000,-84.3750,11,154.64,-18.64,21.38
23.108000,-84.7500,11,154.64,-18.64,21.38
23.118000,-84.0000,11,154.64,-18.64,21.38
23.128000,-85.0000,11,154.64,-18.64,21.38
23.138000,-84.5000,11,154.64,-18.64,21.38
23.148000,-84.5000,11,154.64,-18.64,21.38
23.158000,-84.6250,11,154.64,-18.64,21.38
23.168000,-84.6250,11,154.64,-18.64,21.38
23.178000,-84.0000,11,154.64,-18.64,21.38
23.188000,-84.7500,11,154.64,-18.64,21.38
23.198000,-84.7500,11,154.64,-18.64,21.38
23.208000,-84.3750,11,154.64,-18.64,21.38
23.218000,-84.2500,11,154.64,-18.64,21.38
23.228000,-84.3750,11,154.64,-18.64,21.38
23.238000,-84.7500,11,154.64,-18.64,21.38
23.248000,-84.5000,11,154.64,-18.64,21.38
23.258000,-84.7500,11,154.64,-18.64,21.38
23.268000,-84.6250,11,154.64,-18.64,21.38
23.278000,-85.0000,11,154.64,-18.64,21.38
23.288000,-84.5000,11,154.64,-18.64,21.38
23.298000,-84.6250,11,154.64,-18.64,21.38
23.308000,-84.5000,11,154.64,-18.64,21.38
23.318000,-84.7500,11,154.64,-18.64,21.38
23.328000,-84.5000,11,154.64,-18.64,21.38
23.338000,-84.7500,11,154.64,-18.64,21.38
23.348000,-84.1250,11,154.64,-18.64,21.38
23.358000,-84.6250,11,154.64,-18.64,21.38
23.368000,-84.2500,11,154.64,-18.64,21.38
23.378000,-84.8750,11,154.64,-18.64,21.38
23.388000,-84.1250,11,154.64,-18.64,21.38
23.398000,-84.6250,11,154.64,-18.64,21.38
23.408000,-84.3750,11,154.64,-18.64,21.38
23.418000,-85.0000,11,154.64,-18.64,21.38
23.428000,-84.0000,11,154.64,-18.64,21.38
23.438000,-84.7500,11,154.64,-18.64,21.38
23.448000,-84.3750,11,154.64,-18.64,21.38
23.458000,-85.0000,11,154.64,-18.64,21.38
23.468000,-84.5000,11,154.64,-18.64,21.38
23.478000,-84.8750,11,154.64,-18.64,21.38
23.488000,-84.3750,11,154.64,-18.64,21.38
23.498000,-85.0000,11,154.64,-18.64,21.38
23.508000,-84.2500,11,154.64,-18.64,21.38
23.518000,-85.3750,11,154.64,-18.64,21.38
23.528000,-84.3750,11,154.64,-18.64,21.38
23.538000,-84.8750,11,154.64,-18.64,21.38
23.548000,-84.3750,11,154.64,-18.64,21.38
23.558000,-84.8750,11,154.64,-18.64,21.38
23.568000,-84.1250,11,154.64,-18.64,21.38
23.578000,-85.1250,11,154.64,-18.64,21.38
23.588000,-84.6250,11,154.64,-18.64,21.38
23.598000,-85.2500,11,154.64,-18.64,21.38
23.608000,-84.1250,11,154.64,-18.64,21.38
23.618000,-84.6250,11,154.64,-18.64,21.38
23.628000,-84.3750,11,154.64,-18.64,21.38
23.638000,-84.8750,11,154.64,-18.64,21.38
23.648000,-84.6250,11,154.64,-18.64,21.38
23.658000,-85.0000,11,154.64,-18.64,21.38
23.668000,-83.8750,11,154.64,-18.64,21.38
23.678000,-84.8750,11,154.64,-18.64,21.38
23.688000,-84.5000,11,154.64,-18.64,21.38
23.698000,-84.6250,11,154.64,-18.64,21.38
23.708000,-84.2500,11,154.64,-18.64,21.38
23.718000,-85.1250,11,154.64,-18.64,21.38
23.728000,-84.1250,11,154.64,-18.64,21.38
23.738000,-84.6250,11,154.64,-18.64,21.38
23.748000,-84.2500,11,154.64,-18.64,21.38
23.758000,-84.8750,11,154.64,-18.64,21.38
23.768000,-84.6250,11,154.64,-18.64,21.38
23.778000,-84.8750,11,154.64,-18.64,21.38
23.788000,-84.3750,11,154.64,-18.64,21.38
23.798000,-84.6250,11,154.64,-18.64,21.38
23.808000,-84.2500,11,154.64,-18.64,21.38
23.818000,-85.0000,11,154.64,-18.64,21.38
23.828000,-84.0000,11,154.64,-18.64,21.38
23.838000,-85.0000,11,154.64,-18.64,21.38
23.848000,-84.0000,11,154.64,-18.64,21.38
23.858000,-84.6250,11,154.64,-18.64,21.38
23.868000,-84.3750,11,154.64,-18.64,21.38
23.878000,-84.7500,11,154.64,-18.64,21.38
23.888000,-84.0000,11,154.64,-18.64,21.38
23.898000,-84.7500,11,154.64,-18.64,21.38
23.908000,-84.3750,11,154.64,-18.64,21.38
23.918000,-84.8750,11,154.64,-18.64,21.38
23.928000,-84.3750,11,154.64,-18.64,21.38
23.938000,-85.0000,11,154.64,-18.64,21.38
23.948000,-84.1250,11,154.64,-18.64,21.38
23.958000,-85.1250,11,154.64,-18.64,21.38
23.968000,-84.2500,11,154.64,-18.64,21.38
23.978000,-84.7500,11,154.64,-18.64,21.38
23.988000,-84.0000,11,154.64,-18.64,21.38
23.998000,-84.8750,11,154.64,-18.64,21.38
24.008000,-84.5000,11,154.64,-18.64,21.38
24.018000,-84.7500,11,154.64,-18.64,21.38
24.028000,-84.3750,11,154.64,-18.64,21.38
24.038000,-84.8750,11,154.64,-18.64,21.38
24.048000,-84.5000,11,154.64,-18.64,21.38
24.058000,-84.5000,11,154.64,-18.64,21.38
24.068000,-84.0000,11,154.64,-18.64,21.38
24.078000,-84.5000,11,154.64,-18.64,21.38
24.088000,-84.2500,11,154.64,-18.64,21.38
24.098000,-84.3750,11,154.64,-18.64,21.38
24.108000,-84.6250,11,154.64,-18.64,21.38
24.118000,-84.8750,11,154.64,-18.64,21.38
24.128000,-84.1250,11,154.64,-18.64,21.38
24.138000,-84.5000,11,154.64,-18.64,21.38
24.148000,-84.7500,11,154.64,-18.64,21.38
24.158000,-84.5000,11,154.64,-18.64,21.38
24.168000,-84.6250,11,154.64,-18.64,21.38
24.178000,-84.5000,11,154.64,-18.64,21.38
24.188000,-84.0000,11,154.64,-18.64,21.38
24.198000,-84.6250,11,154.64,-18.64,21.38
24.208000,-84.3750,11,154.64,-18.64,21.38
24.218000,-84.8750,11,154.64,-18.64,21.38
24.228000,-84.6250,11,154.64,-18.64,21.38
24.238000,-85.1250,11,154.64,-18.64,21.38
24.248000,-84.6250,11,154.64,-18.64,21.38
24.258000,-84.6250,11,154.64,-18.64,21.38
24.268000,-84.7500,11,154.64,-18.64,21.38
24.278000,-84.3750,11,154.64,-18.64,21.38
24.288000,-85.0000,11,154.64,-18.64,21.38
24.298000,-84.7500,11,154.64,-18.64,21.38
24.308000,-84.7500,11,154.64,-18.64,21.38
24.318000,-85.0000,11,154.64,-18.64,21.38
24.328000,-85.1250,11,154.64,-18.64,21.38
24.338000,-84.1250,11,154.64,-18.64,21.38
24.348000,-84.7500,11,154.64,-18.64,21.38
24.358000,-84.8750,11,154.64,-18.64,21.38
24.368000,-84.8750,11,154.64,-18.64,21.38
24.378000,-84.8750,11,154.64,-18.64,21.38
24.388000,-84.8750,11,154.64,-18.64,21.38
24.398000,-84.7500,11,154.64,-18.64,21.38
24.408000,-84.7500,11,154.64,-18.64,21.38
24.418000,-84.3750,11,154.64,-18.64,21.38
24.428000,-85.0000,11,154.64,-18.64,21.38
24.438000,-84.6250,11,154.64,-18.64,21.38
24.448000,-85.0000,11,154.64,-18.64,21.38
24.458000,-84.6250,11,154.64,-18.64,21.38
24.468000,-85.2500,11,154.64,-18.64,21.38
24.478000,-85.1250,11,154.64,-18.64,21.38
24.488000,-85.1250,11,154.64,-18.64,21.38
24.498000,-84.3750,11,154.64,-18.64,21.38
24.508000,-84.3750,11,154.64,-18.64,21.38
24.518000,-85.3750,11,154.64,-18.64,21.38
24.528000,-84.5000,11,154.64,-18.64,21.38
24.538000,-85.5000,11,154.64,-18.64,21.38
24.548000,-84.1250,11,154.64,-18.64,21.38
24.558000,-85.1250,11,154.64,-18.64,21.38
24.568000,-84.7500,11,154.64,-18.64,21.38
24.578000,-85.6250,11,154.64,-18.64,21.38
24.588000,-84.5000,11,154.64,-18.64,21.38
24.598000,-84.2500,11,154.64,-18.64,21.38
24.608000,-84.6250,11,154.64,-18.64,21.38
24.618000,-85.3750,11,154.64,-18.64,21.38
24.628000,-84.6250,11,154.64,-18.64,21.38
24.638000,-85.2500,11,154.64,-18.64,21.38
24.648000,-84.6250,11,154.64,-18.64,21.38
24.658000,-85.5000,11,154.64,-18.64,21.38
24.668000,-84.7500,11,154.64,-18.64,21.38
24.678000,-85.3750,11,154.64,-18.64,21.38
24.688000,-84.8750,11,154.64,-18.64,21.38
24.698000,-84.5000,11,154.64,-18.64,21.38
24.708000,-84.6250,11,154.64,-18.64,21.38
24.718000,-84.8750,11,154.64,-18.64,21.38
24.728000,-84.8750,11,154.64,-18.64,21.38
24.738000,-85.1250,11,154.64,-18.64,21.38
24.748000,-84.1250,11,154.64,-18.64,21.38
24.758000,-85.2500,11,154.64,-18.64,21.38
24.768000,-84.5000,11,154.64,-18.64,21.38
24.778000,-84.2500,11,154.64,-18.64,21.38
24.788000,-84.6250,11,154.64,-18.64,21.38
24.798000,-85.0000,11,154.64,-18.64,21.38
24.808000,-84.6250,11,154.64,-18.64,21.38
24.818000,-84.2500,11,154.64,-18.64,21.38
24.828000,-84.6250,11,154.64,-18.64,21.38
24.838000,-85.0000,11,154.64,-18.64,21.38
24.848000,-85.0000,11,154.64,-18.64,21.38
24.858000,-84.1250,11,154.64,-18.64,21.38
24.868000,-85.3750,11,154.64,-18.64,21.38
24.878000,-84.1250,11,154.64,-18.64,21.38
24.888000,-85.1250,11,154.64,-18.64,21.38
24.898000,-84.6250,11,154.64,-18.64,21.38
24.908000,-85.2500,11,154.64,-18.64,21.38
24.918000,-84.6250,11,154.64,-18.64,21.38
24.928000,-85.0000,11,154.64,-18.64,21.38
24.938000,-84.7500,11,154.64,-18.64,21.38
24.948000,-84.6250,11,154.64,-18.64,21.38
24.958000,-85.2500,11,154.64,-18.64,21.38
24.968000,-85.0000,11,154.64,-18.64,21.38
24.978000,-85.1250,11,154.64,-18.64,21.38
24.988000,-84.5000,11,154.64,-18.64,21.38
24.998000,-84.5000,11,154.64,-18.64,21.38
25.008000,-84.0000,11,154.64,-18.64,21.38
25.018000,-84.7500,11,154.64,-18.64,21.38
25.028000,-84.2500,11,154.64,-18.64,21.38
25.038000,-84.0000,11,154.64,-18.64,21.38
25.048000,-84.3750,11,154.64,-18.64,21.38
25.058000,-84.2500,11,154.64,-18.64,21.38
25.068000,-84.5000,11,154.64,-18.64,21.38
25.078000,-83.8750,11,154.64,-18.64,21.38
25.088000,-84.1250,11,154.64,-18.64,21.38
25.098000,-84.8750,11,154.64,-18.64,21.38
25.108000,-84.8750,11,154.64,-18.64,21.38
25.118000,-84.8750,11,154.64,-18.64,21.38
25.128000,-84.2500,11,154.64,-18.64,21.38
25.138000,-84.5000,11,154.64,-18.64,21.38
25.148000,-85.3750,11,154.64,-18.64,21.38
25.158000,-85.0000,11,154.64,-18.64,21.38
25.168000,-84.5000,11,154.64,-18.64,21.38
25.178000,-84.6250,11,154.64,-18.64,21.38
25.188000,-84.7500,11,154.64,-18.64,21.38
25.198000,-83.8750,11,154.64,-18.64,21.38
25.208000,-84.7500,11,154.64,-18.64,21.38
25.218000,-85.0000,11,154.64,-18.64,21.38
25.228000,-85.2500,11,154.64,-18.64,21.38
25.238000,-85.5000,11,154.64,-18.64,21.38
25.248000,-85.2500,11,154.64,-18.64,21.38
25.258000,-85.3750,11,154.64,-18.64,21.38
25.268000,-84.5000,11,154.64,-18.64,21.38
25.278000,-84.7500,11,154.64,-18.64,21.38
25.288000,-85.5000,11,154.64,-18.64,21.38
25.298000,-85.6250,11,154.64,-18.64,21.38
25.308000,-85.2500,11,154.64,-18.64,21.38
25.318000,-84.6250,11,154.64,-18.64,21.38
25.328000,-85.0000,11,154.64,-18.64,21.38
25.338000,-85.3750,11,154.64,-18.64,21.38
25.348000,-85.0000,11,154.64,-18.64,21.38
25.358000,-85.2500,11,154.64,-18.64,21.38
25.368000,-85.1250,11,154.64,-18.64,21.38
25.378000,-84.5000,11,154.64,-18.64,21.38
25.388000,-84.8750,11,154.64,-18.64,21.38
25.398000,-84.2500,11,154.64,-18.64,21.38
25.408000,-85.3750,11,154.64,-18.64,21.38
25.418000,-84.1250,11,154.64,-18.64,21.38
25.428000,-85.1250,11,154.64,-18.64,21.38
25.438000,-84.5000,11,154.64,-18.64,21.38
25.448000,-84.5000,11,154.64,-18.64,21.38
25.458000,-84.6250,11,154.64,-18.64,21.38
25.468000,-84.8750,11,154.64,-18.64,21.38
25.478000,-85.0000,11,154.64,-18.64,21.38
25.488000,-84.2500,11,154.64,-18.64,21.38
25.498000,-83.7500,11,154.64,-18.64,21.38
25.508000,-83.7500,11,154.64,-18.64,21.38
25.518000,-84.1250,11,154.64,-18.64,21.38
25.528000,-263.1250,11,154.64,-18.64,21.38
25.538000,-79.1250,11,154.64,-18.64,21.38
25.548000,-203.8750,11,154.64,-18.64,21.38
25.558000,-94.5000,11,154.64,-18.64,21.38
25.568000,-52.7500,11,154.64,-18.64,21.38
25.578000,-36.2500,11,154.64,-18.64,21.38
25.588000,-17.6250,11,154.64,-18.64,21.38
25.598000,-927.1250,11,154.64,-18.64,21.38
25.608000,-50.8750,11,154.64,-18.64,21.38
25.618000,-865.5000,11,154.64,-18.64,21.38
25.628000,-39.1250,11,154.64,-18.64,21.38
25.638000,-862.2500,11,154.64,-18.64,21.38
25.648000,131.5000,11,154.64,-18.64,21.38
25.658000,-1017.0000,11,154.64,-18.64,21.38
25.668000,154.7500,11,154.64,-18.64,21.38
25.678000,231.1250,11,154.64,-18.64,21.38
25.688000,147.6250,11,154.64,-18.64,21.38
25.698000,406.5000,11,154.64,-18.64,21.38
25.708000,361.1250,11,154.64,-18.64,21.38
25.718000,-596.7500,11,154.64,-18.64,21.38
25.728000,103.5000,11,154.64,-18.64,21.38
25.738000,-287.6250,11,154.64,-18.64,21.38
25.748000,145.5000,11,154.64,-18.64,21.38
25.758000,-864.1250,11,154.64,-18.64,21.38
25.768000,-661.6250,11,154.64,-18.64,21.38
25.778000,557.8750,11,154.64,-18.64,21.38
25.788000,-1267.2500,11,154.64,-18.64,21.38
25.798000,173.8750,11,154.64,-18.64,21.38
25.808000,631.2500,11,154.64,-18.64,21.38
25.818000,697.2500,11,154.64,-18.64,21.38
25.828000,573.5000,11,154.64,-18.64,21.38
25.838000,394.1250,11,154.64,-18.64,21.38
25.848000,-668.2500,11,154.64,-18.64,21.38
25.858000,66.2500,11,154.64,-18.64,21.38
25.868000,693.2500,11,154.64,-18.64,21.38
25.878000,636.7500,11,154.64,-18.64,21.38
25.888000,659.3750,11,154.64,-18.64,21.38
25.898000,594.7500,11,154.64,-18.64,21.38
25.908000,505.6250,11,154.64,-18.64,21.38
25.918000,-482.0000,11,154.64,-18.64,21.38
25.928000,700.5000,11,154.64,-18.64,21.38
25.938000,703.1250,11,154.64,-18.64,21.38
25.948000,-496.7500,11,154.64,-18.64,21.38
25.958000,697.1250,11,154.64,-18.64,21.38
25.968000,-519.6250,11,154.64,-18.64,21.38
25.978000,-338.6250,11,154.64,-18.64,21.38
25.988000,743.7500,11,154.64,-18.64,21.38
25.998000,619.3750,11,154.64,-18.64,21.38
26.008000,-731.1250,11,154.64,-18.64,21.38
26.018000,326.8750,11,154.64,-18.64,21.38
26.028000,798.2500,11,154.64,-18.64,21.38
26.038000,587.3750,11,154.64,-18.64,21.38
26.048000,797.3750,11,154.64,-18.64,21.38
26.058000,757.8750,11,154.64,-18.64,21.38
26.068000,766.1250,11,154.64,-18.64,21.38
26.078000,316.6250,11,154.64,-18.64,21.38
26.088000,719.3750,11,154.64,-18.64,21.38
26.098000,510.7500,11,154.64,-18.64,21.38
26.108000,592.0000,11,154.64,-18.64,21.38
26.118000,-529.6250,11,154.64,-18.64,21.38
26.128000,493.1250,11,154.64,-18.64,21.38
26.138000,512.8750,11,154.64,-18.64,21.38
26.148000,793.5000,11,154.64,-18.64,21.38
26.158000,723.0000,11,154.64,-18.64,21.38
26.168000,691.7500,11,154.64,-18.64,21.38
26.178000,-54.5000,11,154.64,-18.64,21.38
26.188000,694.3750,11,154.64,-18.64,21.38
26.198000,679.6250,11,154.64,-18.64,21.38
26.208000,636.1250,11,154.64,-18.64,21.38
26.218000,627.2500,11,154.64,-18.64,21.38
26.228000,-386.0000,11,154.64,-18.64,21.38
26.238000,108.5000,11,154.64,-18.64,21.38
26.248000,-1278.3750,11,154.64,-18.64,21.38
26.258000,299.3750,11,154.64,-18.64,21.38
26.268000,-859.2500,11,154.64,-18.64,21.38
26.278000,742.2500,11,154.64,-18.64,21.38
26.288000,733.8750,11,154.64,-18.64,21.38
26.298000,718.8750,11,154.64,-18.64,21.38
26.308000,707.3750,11,154.64,-18.64,21.38
26.318000,694.8750,11,154.64,-18.64,21.38
26.328000,677.1250,11,154.64,-18.64,21.38
26.338000,654.0000,11,154.64,-18.64,21.38
26.348000,487.6250,11,154.64,-18.64,21.38
26.358000,-1090.0000,11,154.64,-18.64,21.38
26.368000,-90.7500,11,154.64,-18.64,21.38
26.378000,-1273.2500,11,154.64,-18.64,21.38
26.388000,510.0000,11,154.64,-18.64,21.38
26.398000,708.0000,11,154.64,-18.64,21.38
26.408000,-219.6250,11,154.64,-18.64,21.38
26.418000,751.3750,11,154.64,-18.64,21.38
26.428000,-900.1250,11,154.64,-18.64,21.38
26.438000,754.3750,11,154.64,-18.64,21.38
26.448000,-1178.7500,11,154.64,-18.64,21.38
26.458000,747.7500,11,154.64,-18.64,21.38
26.468000,-515.5000,11,154.64,-18.64,21.38
26.478000,758.5000,11,154.64,-18.64,21.38
26.488000,-239.2500,11,154.64,-18.64,21.38
26.498000,746.3750,11,154.64,-18.64,21.38
26.508000,-378.3750,11,154.64,-18.64,21.38
26.518000,334.2500,11,154.64,-18.64,21.38
26.528000,-1322.6250,11,154.64,-18.64,21.38
26.538000,-468.7500,11,154.64,-18.64,21.38
26.548000,-1322.6250,11,154.64,-18.64,21.38
26.558000,799.2500,11,154.64,-18.64,21.38
26.568000,172.1250,11,154.64,-18.64,21.38
26.578000,774.3750,11,154.64,-18.64,21.38
26.588000,-535.6250,11,154.64,-18.64,21.38
26.598000,-50.3750,11,154.64,-18.64,21.38
26.608000,-1321.3750,11,154.64,-18.64,21.38
26.618000,-1319.0000,11,154.64,-18.64,21.38
26.628000,-1321.7500,11,154.64,-18.64,21.38
26.638000,21.3750,11,154.64,-18.64,21.38
26.648000,-1322.1250,11,154.64,-18.64,21.38
26.658000,1038.5000,11,154.64,-18.64,21.38
26.668000,-1323.1250,11,154.64,-18.64,21.38
26.678000,1040.8750,11,154.64,-18.64,21.38
26.688000,-1321.2500,11,154.64,-18.64,21.38
26.698000,1043.2500,11,154.64,-18.64,21.38
26.708000,-1321.8750,11,154.64,-18.64,21.38
26.718000,6.6250,11,154.64,-18.64,21.38
26.728000,-1321.6250,11,154.64,-18.64,21.38
26.738000,788.7500,11,154.64,-18.64,21.38
26.748000,-1321.0000,11,154.64,-18.64,21.38
26.758000,1034.0000,11,154.64,-18.64,21.38
26.768000,-1323.2500,11,154.64,-18.64,21.38
26.778000,1036.8750,11,154.64,-18.64,21.38
26.788000,-1318.7500,11,154.64,-18.64,21.38
26.798000,963.5000,11,154.64,-18.64,21.38
26.808000,-1181.0000,11,154.64,-18.64,21.38
26.818000,1039.1250,11,154.64,-18.64,21.38
26.828000,-615.0000,11,154.64,-18.64,21.38
26.838000,1033.2500,13,143.54,0.34,7.88
26.848000,-55.6250,13,143.54,0.34,7.88
26.858000,1035.5000,13,143.54,0.34,7.88
26.868000,-403.8750,13,143.54,0.34,7.88
26.878000,678.2500,13,143.54,0.34,7.88
26.888000,-671.1250,13,143.54,0.34,7.88
26.898000,714.7500,13,143.54,0.34,7.88
26.908000,-381.3750,13,143.54,0.34,7.88
26.918000,880.5000,13,143.54,0.34,7.88
26.928000,-115.1250,13,143.54,0.34,7.88
26.938000,1038.0000,13,143.54,0.34,7.88
26.948000,-39.7500,13,143.54,0.34,7.88
26.958000,761.1250,13,143.54,0.34,7.88
26.968000,-430.1250,13,143.54,0.34,7.88
26.978000,625.6250,13,143.54,0.34,7.88
26.988000,-351.2500,13,143.54,0.34,7.88
26.998000,729.6250,13,143.54,0.34,7.88
27.008000,-22.0000,13,143.54,0.34,7.88
27.018000,782.5000,13,143.54,0.34,7.88
27.028000,-169.1250,13,143.54,0.34,7.88
27.038000,822.2500,13,143.54,0.34,7.88
27.048000,-184.6250,13,143.54,0.34,7.88
27.058000,858.1250,13,143.54,0.34,7.88
27.068000,-33.3750,13,143.54,0.34,7.88
27.078000,818.5000,13,143.54,0.34,7.88
27.088000,112.3750,13,143.54,0.34,7.88
27.098000,601.7500,13,143.54,0.34,7.88
27.108000,-301.1250,13,143.54,0.34,7.88
27.118000,659.6250,13,143.54,0.34,7.88
27.128000,-26.3750,13,143.54,0.34,7.88
27.138000,787.2500,13,143.54,0.34,7.88
27.148000,412.2500,13,143.54,0.34,7.88
27.158000,510.6250,13,143.54,0.34,7.88
27.168000,86.7500,13,143.54,0.34,7.88
27.178000,740.5000,13,143.54,0.34,7.88
27.188000,-27.3750,13,143.54,0.34,7.88
27.198000,394.2500,13,143.54,0.34,7.88
27.208000,-304.6250,13,143.54,0.34,7.88
27.218000,97.6250,13,143.54,0.34,7.88
27.228000,-407.5000,13,143.54,0.34,7.88
27.238000,44.2500,13,143.54,0.34,7.88
27.248000,-116.8750,13,143.54,0.34,7.88
27.258000,44.0000,13,143.54,0.34,7.88
27.268000,-114.3750,13,143.54,0.34,7.88
27.278000,81.3750,13,143.54,0.34,7.88
27.288000,-76.5000,13,143.54,0.34,7.88
27.298000,-55.3750,13,143.54,0.34,7.88
27.308000,-84.5000,13,143.54,0.34,7.88
27.318000,-74.6250,13,143.54,0.34,7.88
27.328000,-126.3750,13,143.54,0.34,7.88
27.338000,-67.7500,13,143.54,0.34,7.88
27.348000,336.2500,13,143.54,0.34,7.88
27.358000,-28.8750,13,143.54,0.34,7.88
27.368000,333.1250,13,143.54,0.34,7.88
27.378000,-9.3750,13,143.54,0.34,7.88
27.388000,363.5000,13,143.54,0.34,7.88
27.398000,-161.0000,13,143.54,0.34,7.88
27.408000,447.1250,13,143.54,0.34,7.88
27.418000,-148.2500,13,143.54,0.34,7.88
27.428000,365.6250,13,143.54,0.34,7.88
27.438000,-300.5000,13,143.54,0.34,7.88
27.448000,802.7500,13,143.54,0.34,7.88
27.458000,-210.1250,13,143.54,0.34,7.88
27.468000,840.6250,13,143.54,0.34,7.88
27.478000,-200.5000,13,143.54,0.34,7.88
27.488000,1030.6250,13,143.54,0.34,7.88
27.498000,1039.8750,13,143.54,0.34,7.88
27.508000,1038.6250,13,143.54,0.34,7.88
27.518000,-526.5000,13,143.54,0.34,7.88
27.528000,419.0000,13,143.54,0.34,7.88
27.538000,-665.1250,13,143.54,0.34,7.88
27.548000,-799.6250,13,143.54,0.34,7.88
27.558000,84.3750,13,143.54,0.34,7.88
27.568000,1037.6250,13,143.54,0.34,7.88
27.578000,1038.2500,13,143.54,0.34,7.88
27.588000,1038.3750,13,143.54,0.34,7.88
27.598000,1038.5000,13,143.54,0.34,7.88
27.608000,1039.3750,13,143.54,0.34,7.88
27.618000,1037.0000,13,143.54,0.34,7.88
27.628000,1040.2500,13,143.54,0.34,7.88
27.638000,-449.6250,13,143.54,0.34,7.88
27.648000,-436.0000,13,143.54,0.34,7.88
27.658000,-1322.0000,13,143.54,0.34,7.88
27.668000,-456.0000,13,143.54,0.34,7.88
27.678000,-1326.0000,13,143.54,0.34,7.88
27.688000,-350.0000,13,143.54,0.34,7.88
27.698000,-1327.1250,13,143.54,0.34,7.88
27.708000,181.7500,13,143.54,0.34,7.88
27.718000,-818.0000,13,143.54,0.34,7.88
27.728000,512.6250,13,143.54,0.34,7.88
27.738000,-196.0000,13,143.54,0.34,7.88
27.748000,1037.2500,13,143.54,0.34,7.88
27.758000,-262.3750,13,143.54,0.34,7.88
27.768000,529.2500,13,143.54,0.34,7.88
27.778000,-528.2500,13,143.54,0.34,7.88
27.788000,243.0000,13,143.54,0.34,7.88
27.798000,-324.8750,13,143.54,0.34,7.88
27.808000,517.1250,13,143.54,0.34,7.88
27.818000,-872.0000,13,143.54,0.34,7.88
27.828000,-902.3750,13,143.54,0.34,7.88
27.838000,342.2500,13,143.54,0.34,7.88
27.848000,769.5000,13,143.54,0.34,7.88
27.858000,-316.3750,13,143.54,0.34,7.88
27.868000,526.8750,13,143.54,0.34,7.88
27.878000,-422.2500,13,143.54,0.34,7.88
27.888000,428.5000,13,143.54,0.34,7.88
27.898000,-512.3750,13,143.54,0.34,7.88
27.908000,311.8750,13,143.54,0.34,7.88
27.918000,355.3750,13,143.54,0.34,7.88
27.928000,929.5000,13,143.54,0.34,7.88
27.938000,-443.1250,13,143.54,0.34,7.88
27.948000,359.1250,13,143.54,0.34,7.88
27.958000,-628.2500,13,143.54,0.34,7.88
27.968000,351.6250,13,143.54,0.34,7.88
27.978000,-608.8750,13,143.54,0.34,7.88
27.988000,238.8750,13,143.54,0.34,7.88
27.998000,-623.0000,13,143.54,0.34,7.88
28.008000,296.7500,13,143.54,0.34,7.88
28.018000,-577.8750,13,143.54,0.34,7.88
28.028000,400.3750,13,143.54,0.34,7.88
28.038000,-595.6250,13,143.54,0.34,7.88
28.048000,404.1250,13,143.54,0.34,7.88
28.058000,-673.6250,13,143.54,0.34,7.88
28.068000,197.2500,13,143.54,0.34,7.88
28.078000,-688.2500,13,143.54,0.34,7.88
28.088000,158.7500,13,143.54,0.34,7.88
28.098000,-655.6250,13,143.54,0.34,7.88
28.108000,225.0000,13,143.54,0.34,7.88
28.118000,-638.7500,13,143.54,0.34,7.88
28.128000,274.5000,13,143.54,0.34,7.88
28.138000,-547.6250,13,143.54,0.34,7.88
28.148000,347.1250,13,143.54,0.34,7.88
28.158000,-522.1250,13,143.54,0.34,7.88
28.168000,317.6250,13,143.54,0.34,7.88
28.178000,-552.0000,13,143.54,0.34,7.88
28.188000,129.5000,13,143.54,0.34,7.88
28.198000,-473.6250,13,143.54,0.34,7.88
28.208000,132.7500,13,143.54,0.34,7.88
28.218000,-480.5000,13,143.54,0.34,7.88
28.228000,234.8750,13,143.54,0.34,7.88
28.238000,-345.8750,13,143.54,0.34,7.88
28.248000,107.3750,13,143.54,0.34,7.88
28.258000,-388.8750,13,143.54,0.34,7.88
28.268000,68.8750,13,143.54,0.34,7.88
28.278000,-594.3750,13,143.54,0.34,7.88
28.288000,631.5000,13,143.54,0.34,7.88
28.298000,429.0000,13,143.54,0.34,7.88
28.308000,499.2500,13,143.54,0.34,7.88
28.318000,51.0000,13,143.54,0.34,7.88
28.328000,1033.8750,13,143.54,0.34,7.88
28.338000,1030.5000,13,143.54,0.34,7.88
28.348000,715.2500,13,143.54,0.34,7.88
28.358000,582.6250,13,143.54,0.34,7.88
28.368000,8.3750,13,143.54,0.34,7.88
28.378000,99.5000,13,143.54,0.34,7.88
28.388000,281.8750,13,143.54,0.34,7.88
28.398000,104.1250,13,143.54,0.34,7.88
28.408000,-305.1250,13,143.54,0.34,7.88
28.418000,20.7500,13,143.54,0.34,7.88
28.428000,-322.2500,13,143.54,0.34,7.88
28.438000,-29.8750,13,143.54,0.34,7.88
28.448000,-343.0000,13,143.54,0.34,7.88
28.458000,439.2500,13,143.54,0.34,7.88
28.468000,696.8750,13,143.54,0.34,7.88
28.478000,1020.3750,13,143.54,0.34,7.88
28.488000,-634.7500,13,143.54,0.34,7.88
28.498000,-52.6250,13,143.54,0.34,7.88
28.508000,-901.7500,13,143.54,0.34,7.88
28.518000,276.2500,13,143.54,0.34,7.88
28.528000,-803.3750,13,143.54,0.34,7.88
28.538000,288.0000,13,143.54,0.34,7.88
28.548000,-765.8750,13,143.54,0.34,7.88
28.558000,811.5000,13,143.54,0.34,7.88
28.568000,-645.5000,13,143.54,0.34,7.88
28.578000,-674.2500,13,143.54,0.34,7.88
28.588000,925.6250,13,143.54,0.34,7.88
28.598000,-522.3750,13,143.54,0.34,7.88
28.608000,-465.0000,13,143.54,0.34,7.88
28.618000,-439.7500,13,143.54,0.34,7.88
28.628000,-476.1250,13,143.54,0.34,7.88
28.638000,-385.2500,13,143.54,0.34,7.88
28.648000,-69.5000,13,143.54,0.34,7.88
28.658000,649.5000,13,143.54,0.34,7.88
28.668000,660.1250,13,143.54,0.34,7.88
28.678000,673.8750,13,143.54,0.34,7.88
28.688000,-449.3750,13,143.54,0.34,7.88
28.698000,509.3750,13,143.54,0.34,7.88
28.708000,-413.5000,13,143.54,0.34,7.88
28.718000,528.6250,13,143.54,0.34,7.88
28.728000,-435.0000,13,143.54,0.34,7.88
28.738000,519.5000,13,143.54,0.34,7.88
28.748000,72.1250,13,143.54,0.34,7.88
28.758000,117.2500,13,143.54,0.34,7.88
28.768000,1033.1250,13,143.54,0.34,7.88
28.778000,1038.6250,13,143.54,0.34,7.88
28.788000,472.2500,13,143.54,0.34,7.88
28.798000,884.8750,13,143.54,0.34,7.88
28.808000,-154.5000,13,143.54,0.34,7.88
28.818000,276.3750,13,143.54,0.34,7.88
28.828000,928.3750,13,143.54,0.34,7.88
28.838000,507.1250,13,143.54,0.34,7.88
28.848000,573.6250,13,143.54,0.34,7.88
28.858000,219.3750,13,143.54,0.34,7.88
28.868000,913.7500,13,143.54,0.34,7.88
28.878000,55.7500,13,143.54,0.34,7.88
28.888000,949.0000,13,143.54,0.34,7.88
28.898000,98.2500,13,143.54,0.34,7.88
28.908000,900.1250,13,143.54,0.34,7.88
28.918000,94.7500,13,143.54,0.34,7.88
28.928000,1035.7500,13,143.54,0.34,7.88
28.938000,129.2500,13,143.54,0.34,7.88
28.948000,1033.8750,13,143.54,0.34,7.88
28.958000,-232.3750,13,143.54,0.34,7.88
28.968000,279.5000,13,143.54,0.34,7.88
28.978000,6.6250,13,143.54,0.34,7.88
28.988000,-285.2500,13,143.54,0.34,7.88
28.998000,-184.7500,13,143.54,0.34,7.88
29.008000,101.2500,13,143.54,0.34,7.88
29.018000,1011.6250,13,143.54,0.34,7.88
29.028000,177.3750,13,143.54,0.34,7.88
29.038000,-189.3750,13,143.54,0.34,7.88
29.048000,1010.7500,13,143.54,0.34,7.88
29.058000,1033.5000,13,143.54,0.34,7.88
29.068000,606.8750,13,143.54,0.34,7.88
29.078000,762.2500,13,143.54,0.34,7.88
29.088000,756.0000,13,143.54,0.34,7.88
29.098000,706.7500,13,143.54,0.34,7.88
29.108000,580.6250,13,143.54,0.34,7.88
29.118000,-365.0000,13,143.54,0.34,7.88
29.128000,466.7500,13,143.54,0.34,7.88
29.138000,-45.5000,13,143.54,0.34,7.88
29.148000,-345.1250,13,143.54,0.34,7.88
29.158000,157.1250,13,143.54,0.34,7.88
29.168000,-2.8750,13,143.54,0.34,7.88
29.178000,26.7500,13,143.54,0.34,7.88
29.188000,221.8750,13,143.54,0.34,7.88
29.198000,-127.7500,13,143.54,0.34,7.88
29.208000,-32.3750,13,143.54,0.34,7.88
29.218000,415.2500,13,143.54,0.34,7.88
29.228000,396.0000,13,143.54,0.34,7.88
29.238000,403.3750,13,143.54,0.34,7.88
29.248000,371.7500,13,143.54,0.34,7.88
29.258000,334.3750,13,143.54,0.34,7.88
29.268000,-225.1250,13,143.54,0.34,7.88
29.278000,315.5000,13,143.54,0.34,7.88
29.288000,236.5000,13,143.54,0.34,7.88
29.298000,-14.7500,13,143.54,0.34,7.88
29.308000,-208.8750,13,143.54,0.34,7.88
29.318000,113.2500,13,143.54,0.34,7.88
29.328000,-484.3750,13,143.54,0.34,7.88
29.338000,93.1250,13,143.54,0.34,7.88
29.348000,162.6250,13,143.54,0.34,7.88
29.358000,265.7500,13,143.54,0.34,7.88
29.368000,163.1250,13,143.54,0.34,7.88
29.378000,237.1250,13,143.54,0.34,7.88
29.388000,-78.6250,13,143.54,0.34,7.88
29.398000,-0.2500,13,143.54,0.34,7.88
29.408000,-669.8750,13,143.54,0.34,7.88
29.418000,218.0000,13,143.54,0.34,7.88
29.428000,206.3750,13,143.54,0.34,7.88
29.438000,-282.1250,13,143.54,0.34,7.88
29.448000,150.6250,13,143.54,0.34,7.88
29.458000,82.2500,13,143.54,0.34,7.88
29.468000,71.5000,13,143.54,0.34,7.88
29.478000,60.2500,13,143.54,0.34,7.88
29.488000,50.2500,13,143.54,0.34,7.88
29.498000,37.6250,13,143.54,0.34,7.88
29.508000,22.7500,13,143.54,0.34,7.88
29.518000,13.0000,13,143.54,0.34,7.88
29.528000,0.6250,13,143.54,0.34,7.88
29.538000,-23.6250,13,143.54,0.34,7.88
29.548000,-29.3750,13,143.54,0.34,7.88
29.558000,-35.7500,13,143.54,0.34,7.88
29.568000,-40.0000,13,143.54,0.34,7.88
29.578000,-63.8750,13,143.54,0.34,7.88
29.588000,-80.7500,13,143.54,0.34,7.88
29.598000,-134.5000,13,143.54,0.34,7.88
29.608000,-146.8750,13,143.54,0.34,7.88
29.618000,-151.8750,13,143.54,0.34,7.88
29.628000,-159.8750,13,143.54,0.34,7.88
29.638000,-166.3750,13,143.54,0.34,7.88
29.648000,-170.3750,13,143.54,0.34,7.88
29.658000,-174.2500,13,143.54,0.34,7.88
29.668000,-176.6250,13,143.54,0.34,7.88
29.678000,-197.2500,13,143.54,0.34,7.88
29.688000,-201.2500,13,143.54,0.34,7.88
29.698000,-233.2500,13,143.54,0.34,7.88
29.708000,-240.1250,13,143.54,0.34,7.88
29.718000,-240.7500,13,143.54,0.34,7.88
29.728000,-246.0000,13,143.54,0.34,7.88
29.738000,-248.2500,13,143.54,0.34,7.88
29.748000,-250.8750,13,143.54,0.34,7.88
29.758000,-253.1250,13,143.54,0.34,7.88
29.768000,-252.8750,13,143.54,0.34,7.88
29.778000,-262.2500,13,143.54,0.34,7.88
29.788000,-266.7500,13,143.54,0.34,7.88
29.798000,-277.2500,13,143.54,0.34,7.88
29.808000,-275.8750,13,143.54,0.34,7.88
29.818000,-278.5000,13,143.54,0.34,7.88
29.828000,-282.3750,13,143.54,0.34,7.88
29.838000,-287.7500,13,143.54,0.34,7.88
29.848000,-280.3750,13,143.54,0.34,7.88
29.858000,-284.6250,13,143.54,0.34,7.88
29.868000,-287.6250,13,143.54,0.34,7.88
29.878000,-289.8750,13,143.54,0.34,7.88
29.888000,-285.7500,13,143.54,0.34,7.88
29.898000,-282.2500,13,143.54,0.34,7.88
29.908000,-289.8750,13,143.54,0.34,7.88
29.918000,-287.5000,13,143.54,0.34,7.88
29.928000,-285.0000,13,143.54,0.34,7.88
29.938000,-286.3750,13,143.54,0.34,7.88
29.948000,-294.5000,13,143.54,0.34,7.88
29.958000,-284.2500,13,143.54,0.34,7.88
29.968000,-284.7500,13,143.54,0.34,7.88
29.978000,-284.8750,13,143.54,0.34,7.88
29.988000,-283.5000,13,143.54,0.34,7.88
29.998000,-281.7500,13,143.54,0.34,7.88
30.008000,-282.2500,13,143.54,0.34,7.88
30.018000,-282.3750,13,143.54,0.34,7.88
30.028000,-280.5000,13,143.54,0.34,7.88
30.038000,-277.1250,13,143.54,0.34,7.88
30.048000,-272.6250,13,143.54,0.34,7.88
30.058000,-269.1250,13,143.54,0.34,7.88
30.068000,-269.6250,13,143.54,0.34,7.88
30.078000,-270.7500,13,143.54,0.34,7.88
30.088000,-269.1250,13,143.54,0.34,7.88
30.098000,-271.0000,13,143.54,0.34,7.88
30.108000,-268.0000,13,143.54,0.34,7.88
30.118000,-265.8750,13,143.54,0.34,7.88
30.128000,-264.3750,13,143.54,0.34,7.88
30.138000,-263.5000,13,143.54,0.34,7.88
30.148000,-265.1250,13,143.54,0.34,7.88
30.158000,-261.6250,13,143.54,0.34,7.88
30.168000,-259.7500,13,143.54,0.34,7.88
30.178000,-259.3750,13,143.54,0.34,7.88
30.188000,-258.5000,13,143.54,0.34,7.88
30.198000,-257.6250,13,143.54,0.34,7.88
30.208000,-258.5000,13,143.54,0.34,7.88
30.218000,-255.8750,13,143.54,0.34,7.88
30.228000,-255.6250,13,143.54,0.34,7.88
30.238000,-255.3750,13,143.54,0.34,7.88
30.248000,-253.7500,13,143.54,0.34,7.88
30.258000,-254.5000,13,143.54,0.34,7.88
30.268000,-253.7500,13,143.54,0.34,7.88
30.278000,-253.3750,13,143.54,0.34,7.88
30.288000,-252.6250,13,143.54,0.34,7.88
30.298000,-250.2500,13,143.54,0.34,7.88
30.308000,-252.1250,13,143.54,0.34,7.88
30.318000,-249.2500,13,143.54,0.34,7.88
30.328000,-250.5000,13,143.54,0.34,7.88
30.338000,-248.0000,13,143.54,0.34,7.88
30.348000,-248.1250,13,143.54,0.34,7.88
30.358000,-246.5000,13,143.54,0.34,7.88
30.368000,-246.8750,13,143.54,0.34,7.88
30.378000,-245.0000,13,143.54,0.34,7.88
30.388000,-246.1250,13,143.54,0.34,7.88
30.398000,-245.5000,13,143.54,0.34,7.88
30.408000,-244.8750,13,143.54,0.34,7.88
30.418000,-242.7500,13,143.54,0.34,7.88
30.428000,-243.2500,13,143.54,0.34,7.88
30.438000,-241.0000,13,143.54,0.34,7.88
30.448000,-242.5000,13,143.54,0.34,7.88
30.458000,-240.3750,13,143.54,0.34,7.88
30.468000,-241.3750,13,143.54,0.34,7.88
30.478000,-239.6250,13,143.54,0.34,7.88
30.488000,-239.3750,13,143.54,0.34,7.88
30.498000,-237.1250,13,143.54,0.34,7.88
30.508000,-235.7500,13,143.54,0.34,7.88
30.518000,-235.5000,13,143.54,0.34,7.88
30.528000,-235.5000,13,143.54,0.34,7.88
30.538000,-233.3750,13,143.54,0.34,7.88
30.548000,-234.5000,13,143.54,0.34,7.88
30.558000,-231.7500,13,143.54,0.34,7.88
30.568000,-233.1250,13,143.54,0.34,7.88
30.578000,-231.7500,13,143.54,0.34,7.88
30.588000,-232.1250,13,143.54,0.34,7.88
30.598000,-229.3750,13,143.54,0.34,7.88
30.608000,-229.6250,13,143.54,0.34,7.88
30.618000,-227.8750,13,143.54,0.34,7.88
30.628000,-227.6250,13,143.54,0.34,7.88
30.638000,-226.8750,13,143.54,0.34,7.88
30.648000,-226.3750,13,143.54,0.34,7.88
30.658000,-225.3750,13,143.54,0.34,7.88
30.668000,-224.5000,13,143.54,0.34,7.88
30.678000,-223.3750,13,143.54,0.34,7.88
30.688000,-223.6250,15,97.72,-2.09,10.15
30.698000,-222.2500,15,97.72,-2.09,10.15
30.708000,-223.0000,15,97.72,-2.09,10.15
30.718000,-220.7500,15,97.72,-2.09,10.15
30.728000,-220.7500,15,97.72,-2.09,10.15
30.738000,-220.1250,15,97.72,-2.09,10.15
30.748000,-219.5000,15,97.72,-2.09,10.15
30.758000,-218.2500,15,97.72,-2.09,10.15
30.768000,-218.3750,15,97.72,-2.09,10.15
30.778000,-217.1250,15,97.72,-2.09,10.15
30.788000,-217.2500,15,97.72,-2.09,10.15
30.798000,-215.8750,15,97.72,-2.09,10.15
30.808000,-215.8750,15,97.72,-2.09,10.15
30.818000,-213.8750,15,97.72,-2.09,10.15
30.828000,-215.5000,15,97.72,-2.09,10.15
30.838000,-213.3750,15,97.72,-2.09,10.15
30.848000,-213.5000,15,97.72,-2.09,10.15
30.858000,-211.1250,15,97.72,-2.09,10.15
30.868000,-212.1250,15,97.72,-2.09,10.15
30.878000,-211.3750,15,97.72,-2.09,10.15
30.888000,-210.3750,15,97.72,-2.09,10.15
30.898000,-209.0000,15,97.72,-2.09,10.15
30.908000,-209.5000,15,97.72,-2.09,10.15
30.918000,-208.2500,15,97.72,-2.09,10.15
30.928000,-208.8750,15,97.72,-2.09,10.15
30.938000,-206.6250,15,97.72,-2.09,10.15
30.948000,-206.5000,15,97.72,-2.09,10.15
30.958000,-205.6250,15,97.72,-2.09,10.15
30.968000,-206.0000,15,97.72,-2.09,10.15
30.978000,-204.2500,15,97.72,-2.09,10.15
30.988000,-204.2500,15,97.72,-2.09,10.15
30.998000,-203.5000,15,97.72,-2.09,10.15
31.008000,-203.1250,15,97.72,-2.09,10.15
31.018000,-201.8750,15,97.72,-2.09,10.15
31.028000,-202.2500,15,97.72,-2.09,10.15
31.038000,-201.0000,15,97.72,-2.09,10.15
31.048000,-200.1250,15,97.72,-2.09,10.15
31.058000,-199.3750,15,97.72,-2.09,10.15
31.068000,-198.6250,15,97.72,-2.09,10.15
31.078000,-198.1250,15,97.72,-2.09,10.15
31.088000,-198.3750,15,97.72,-2.09,10.15
31.098000,-196.7500,15,97.72,-2.09,10.15
31.108000,-196.2500,15,97.72,-2.09,10.15
31.118000,-196.1250,15,97.72,-2.09,10.15
31.128000,-195.2500,15,97.72,-2.09,10.15
31.138000,-194.6250,15,97.72,-2.09,10.15
31.148000,-194.6250,15,97.72,-2.09,10.15
31.158000,-193.5000,15,97.72,-2.09,10.15
31.168000,-192.3750,15,97.72,-2.09,10.15
31.178000,-192.5000,15,97.72,-2.09,10.15
31.188000,-191.5000,15,97.72,-2.09,10.15
31.198000,-191.8750,15,97.72,-2.09,10.15
31.208000,-191.0000,15,97.72,-2.09,10.15
31.218000,-190.2500,15,97.72,-2.09,10.15
31.228000,-189.2500,15,97.72,-2.09,10.15
31.238000,-189.1250,15,97.72,-2.09,10.15
31.248000,-188.1250,15,97.72,-2.09,10.15
31.258000,-188.1250,15,97.72,-2.09,10.15
31.268000,-187.0000,15,97.72,-2.09,10.15
31.278000,-186.3750,15,97.72,-2.09,10.15
31.288000,-186.0000,15,97.72,-2.09,10.15
31.298000,-185.3750,15,97.72,-2.09,10.15
31.308000,-183.5000,15,97.72,-2.09,10.15
31.318000,-184.3750,15,97.72,-2.09,10.15
31.328000,-183.7500,15,97.72,-2.09,10.15
31.338000,-184.1250,15,97.72,-2.09,10.15
31.348000,-182.5000,15,97.72,-2.09,10.15
31.358000,-182.5000,15,97.72,-2.09,10.15
31.368000,-181.7500,15,97.72,-2.09,10.15
31.378000,-181.5000,15,97.72,-2.09,10.15
31.388000,-180.3750,15,97.72,-2.09,10.15
31.398000,-180.0000,15,97.72,-2.09,10.15
31.408000,-179.5000,15,97.72,-2.09,10.15
31.418000,-179.6250,15,97.72,-2.09,10.15
31.428000,-177.6250,15,97.72,-2.09,10.15
31.438000,-178.2500,15,97.72,-2.09,10.15
31.448000,-176.8750,15,97.72,-2.09,10.15
31.458000,-177.5000,15,97.72,-2.09,10.15
31.468000,-175.6250,15,97.72,-2.09,10.15
31.478000,-176.8750,15,97.72,-2.09,10.15
31.488000,-174.2500,15,97.72,-2.09,10.15
31.498000,-175.3750,15,97.72,-2.09,10.15
31.508000,-173.8750,15,97.72,-2.09,10.15
31.518000,-174.1250,15,97.72,-2.09,10.15
31.528000,-172.3750,15,97.72,-2.09,10.15
31.538000,-173.1250,15,97.72,-2.09,10.15
31.548000,-171.3750,15,97.72,-2.09,10.15
31.558000,-172.3750,15,97.72,-2.09,10.15
31.568000,-170.3750,15,97.72,-2.09,10.15
31.578000,-170.6250,15,97.72,-2.09,10.15
31.588000,-169.2500,15,97.72,-2.09,10.15
31.598000,-170.2500,15,97.72,-2.09,10.15
31.608000,-168.8750,15,97.72,-2.09,10.15
31.618000,-168.7500,15,97.72,-2.09,10.15
31.628000,-167.6250,15,97.72,-2.09,10.15
31.638000,-167.6250,15,97.72,-2.09,10.15
31.648000,-166.8750,15,97.72,-2.09,10.15
31.658000,-166.5000,15,97.72,-2.09,10.15
31.668000,-165.0000,15,97.72,-2.09,10.15
31.678000,-165.3750,15,97.72,-2.09,10.15
31.688000,-164.2500,15,97.72,-2.09,10.15
31.698000,-165.0000,15,97.72,-2.09,10.15
31.708000,-163.6250,15,97.72,-2.09,10.15
31.718000,-164.0000,15,97.72,-2.09,10.15
31.728000,-162.8750,15,97.72,-2.09,10.15
31.738000,-163.3750,15,97.72,-2.09,10.15
31.748000,-161.0000,15,97.72,-2.09,10.15
31.758000,-161.7500,15,97.72,-2.09,10.15
31.768000,-160.2500,15,97.72,-2.09,10.15
31.778000,-161.1250,15,97.72,-2.09,10.15
31.788000,-159.8750,15,97.72,-2.09,10.15
31.798000,-160.7500,15,97.72,-2.09,10.15
31.808000,-158.6250,15,97.72,-2.09,10.15
31.818000,-159.7500,15,97.72,-2.09,10.15
31.828000,-157.6250,15,97.72,-2.09,10.15
31.838000,-158.3750,15,97.72,-2.09,10.15
31.848000,-157.5000,15,97.72,-2.09,10.15
31.858000,-157.2500,15,97.72,-2.09,10.15
31.868000,-156.5000,15,97.72,-2.09,10.15
31.878000,-156.7500,15,97.72,-2.09,10.15
31.888000,-155.5000,15,97.72,-2.09,10.15
31.898000,-155.2500,15,97.72,-2.09,10.15
31.908000,-154.2500,15,97.72,-2.09,10.15
31.918000,-154.7500,15,97.72,-2.09,10.15
31.928000,-153.1250,15,97.72,-2.09,10.15
31.938000,-154.6250,15,97.72,-2.09,10.15
31.948000,-152.8750,15,97.72,-2.09,10.15
31.958000,-152.8750,15,97.72,-2.09,10.15
31.968000,-152.1250,15,97.72,-2.09,10.15
31.978000,-153.0000,15,97.72,-2.09,10.15
31.988000,-151.6250,15,97.72,-2.09,10.15
31.998000,-152.0000,15,97.72,-2.09,10.15
32.008000,-150.7500,15,97.72,-2.09,10.15
32.018000,-151.2500,15,97.72,-2.09,10.15
32.028000,-150.3750,15,97.72,-2.09,10.15
32.038000,-149.8750,15,97.72,-2.09,10.15
32.048000,-149.2500,15,97.72,-2.09,10.15
32.058000,-149.7500,15,97.72,-2.09,10.15
32.068000,-148.2500,15,97.72,-2.09,10.15
32.078000,-148.8750,15,97.72,-2.09,10.15
32.088000,-148.2500,15,97.72,-2.09,10.15
32.098000,-147.1250,15,97.72,-2.09,10.15
32.108000,-147.7500,15,97.72,-2.09,10.15
32.118000,-146.6250,15,97.72,-2.09,10.15
32.128000,-147.0000,15,97.72,-2.09,10.15
32.138000,-146.1250,15,97.72,-2.09,10.15
32.148000,-146.0000,15,97.72,-2.09,10.15
32.158000,-145.7500,15,97.72,-2.09,10.15
32.168000,-145.3750,15,97.72,-2.09,10.15
32.178000,-143.8750,15,97.72,-2.09,10.15
32.188000,-144.3750,15,97.72,-2.09,10.15
32.198000,-144.1250,15,97.72,-2.09,10.15
32.208000,-143.0000,15,97.72,-2.09,10.15
32.218000,-143.1250,15,97.72,-2.09,10.15
32.228000,-142.8750,15,97.72,-2.09,10.15
32.238000,-142.6250,15,97.72,-2.09,10.15
32.248000,-142.6250,15,97.72,-2.09,10.15
32.258000,-141.2500,15,97.72,-2.09,10.15
32.268000,-141.1250,15,97.72,-2.09,10.15
32.278000,-140.2500,15,97.72,-2.09,10.15
32.288000,-140.8750,15,97.72,-2.09,10.15
32.298000,-140.0000,15,97.72,-2.09,10.15
32.308000,-139.6250,15,97.72,-2.09,10.15
32.318000,-139.0000,15,97.72,-2.09,10.15
32.328000,-139.6250,15,97.72,-2.09,10.15
32.338000,-138.3750,15,97.72,-2.09,10.15
32.348000,-138.6250,15,97.72,-2.09,10.15
32.358000,-137.3750,15,97.72,-2.09,10.15
32.368000,-137.6250,15,97.72,-2.09,10.15
32.378000,-136.6250,15,97.72,-2.09,10.15
32.388000,-136.5000,15,97.72,-2.09,10.15
32.398000,-136.0000,15,97.72,-2.09,10.15
32.408000,-136.5000,15,97.72,-2.09,10.15
32.418000,-135.5000,15,97.72,-2.09,10.15
32.428000,-135.2500,15,97.72,-2.09,10.15
32.438000,-135.0000,15,97.72,-2.09,10.15
32.448000,-135.0000,15,97.72,-2.09,10.15
32.458000,-134.3750,15,97.72,-2.09,10.15
32.468000,-134.7500,15,97.72,-2.09,10.15
32.478000,-133.6250,15,97.72,-2.09,10.15
32.488000,-132.2500,15,97.72,-2.09,10.15
32.498000,-131.3750,15,97.72,-2.09,10.15
32.508000,-130.2500,15,97.72,-2.09,10.15
32.518000,-129.3750,15,97.72,-2.09,10.15
32.528000,-126.3750,15,97.72,-2.09,10.15
32.538000,-125.7500,15,97.72,-2.09,10.15
32.548000,-125.0000,15,97.72,-2.09,10.15
32.558000,-124.7500,15,97.72,-2.09,10.15
32.568000,-124.0000,15,97.72,-2.09,10.15
32.578000,-124.2500,15,97.72,-2.09,10.15
32.588000,-123.5000,15,97.72,-2.09,10.15
32.598000,-123.3750,15,97.72,-2.09,10.15
32.608000,-123.1250,15,97.72,-2.09,10.15
32.618000,-122.5000,15,97.72,-2.09,10.15
32.628000,-123.1250,15,97.72,-2.09,10.15
32.638000,-122.0000,15,97.72,-2.09,10.15
32.648000,-122.2500,15,97.72,-2.09,10.15
32.658000,-121.7500,15,97.72,-2.09,10.15
32.668000,-121.6250,15,97.72,-2.09,10.15
32.678000,-120.2500,15,97.72,-2.09,10.15
32.688000,-118.8750,15,97.72,-2.09,10.15
32.698000,-117.8750,15,97.72,-2.09,10.15
32.708000,-117.2500,15,97.72,-2.09,10.15
32.718000,-115.7500,15,97.72,-2.09,10.15
32.728000,-113.1250,15,97.72,-2.09,10.15
32.738000,-112.5000,15,97.72,-2.09,10.15
32.748000,-112.0000,15,97.72,-2.09,10.15
32.758000,-112.1250,15,97.72,-2.09,10.15
32.768000,-111.6250,15,97.72,-2.09,10.15
32.778000,-111.0000,15,97.72,-2.09,10.15
32.788000,-111.1250,15,97.72,-2.09,10.15
32.798000,-110.3750,15,97.72,-2.09,10.15
32.808000,-110.6250,15,97.72,-2.09,10.15
32.818000,-110.2500,15,97.72,-2.09,10.15
32.828000,-110.0000,15,97.72,-2.09,10.15
32.838000,-109.7500,15,97.72,-2.09,10.15
32.848000,-110.0000,15,97.72,-2.09,10.15
32.858000,-110.8750,15,97.72,-2.09,10.15
32.868000,-109.3750,15,97.72,-2.09,10.15
32.878000,-110.5000,15,97.72,-2.09,10.15
32.888000,-108.6250,15,97.72,-2.09,10.15
32.898000,-109.7500,15,97.72,-2.09,10.15
32.908000,-108.7500,15,97.72,-2.09,10.15
32.918000,-107.3750,15,97.72,-2.09,10.15
32.928000,-106.5000,15,97.72,-2.09,10.15
32.938000,-105.2500,15,97.72,-2.09,10.15
32.948000,-105.5000,15,97.72,-2.09,10.15
32.958000,-106.0000,15,97.72,-2.09,10.15
32.968000,-105.7500,15,97.72,-2.09,10.15
32.978000,-105.5000,15,97.72,-2.09,10.15
32.988000,-103.1250,15,97.72,-2.09,10.15
32.998000,-102.3750,15,97.72,-2.09,10.15
33.008000,-102.0000,15,97.72,-2.09,10.15
33.018000,-101.1250,15,97.72,-2.09,10.15
33.028000,-101.3750,15,97.72,-2.09,10.15
33.038000,-101.1250,15,97.72,-2.09,10.15
33.048000,-101.0000,15,97.72,-2.09,10.15
33.058000,-100.7500,15,97.72,-2.09,10.15
