timestamp_s,filtered_mV,loop,hr_bpm,snr_wb_db,snr_qrs_db
0.158000,-91.8750,0,,,
0.168000,-97.0000,0,,,
0.178000,-92.5000,0,,,
0.188000,-97.3750,0,,,
0.198000,-89.3750,0,,,
0.208000,-94.8750,0,,,
0.218000,-89.6250,0,,,
0.228000,-95.1250,0,,,
0.238000,-89.1250,0,,,
0.248000,-95.0000,0,,,
0.258000,-89.7500,0,,,
0.268000,-95.1250,0,,,
0.278000,-87.8750,0,,,
0.288000,-94.8750,0,,,
0.298000,-86.6250,0,,,
0.308000,-93.3750,0,,,
0.318000,-87.5000,0,,,
0.328000,-91.2500,0,,,
0.338000,-87.1250,0,,,
0.348000,-91.5000,0,,,
0.358000,-88.0000,0,,,
0.368000,-93.1250,0,,,
0.378000,-89.3750,0,,,
0.388000,-94.3750,0,,,
0.398000,-89.5000,0,,,
0.408000,-94.1250,0,,,
0.418000,-90.0000,0,,,
0.428000,-91.7500,0,,,
0.438000,-88.7500,0,,,
0.448000,-91.6250,0,,,
0.458000,-86.3750,0,,,
0.468000,-85.2500,0,,,
0.478000,-77.6250,0,,,
0.488000,-87.3750,0,,,
0.498000,-96.8750,0,,,
0.508000,-97.5000,0,,,
0.518000,-85.1250,0,,,
0.528000,-85.8750,0,,,
0.538000,-84.1250,0,,,
0.548000,-84.6250,0,,,
0.558000,-82.1250,0,,,
0.568000,-84.8750,0,,,
0.578000,-81.6250,0,,,
0.588000,-84.0000,0,,,
0.598000,-80.6250,0,,,
0.608000,-83.0000,0,,,
0.618000,-80.0000,0,,,
0.628000,-81.7500,0,,,
0.638000,-75.8750,0,,,
0.648000,-78.3750,0,,,
0.658000,-75.6250,0,,,
0.668000,-76.5000,0,,,
0.678000,-74.2500,0,,,
0.688000,-76.0000,0,,,
0.698000,-75.7500,0,,,
0.708000,-77.3750,0,,,
0.718000,-78.6250,0,,,
0.728000,-80.5000,0,,,
0.738000,-80.2500,0,,,
0.748000,-81.3750,0,,,
0.758000,-81.0000,0,,,
0.768000,-82.5000,0,,,
0.778000,-81.5000,0,,,
0.788000,-82.1250,0,,,
0.798000,-82.7500,0,,,
0.808000,-82.5000,0,,,
0.818000,-82.0000,0,,,
0.828000,-82.5000,0,,,
0.838000,-82.3750,0,,,
0.848000,-81.6250,0,,,
0.858000,-82.2500,0,,,
0.868000,-80.7500,0,,,
0.878000,-81.8750,0,,,
0.888000,-81.1250,0,,,
0.898000,-81.3750,0,,,
0.908000,-81.1250,0,,,
0.918000,-82.3750,0,,,
0.928000,-79.7500,0,,,
0.938000,-81.8750,0,,,
0.948000,-80.7500,0,,,
0.958000,-82.2500,0,,,
0.968000,-81.8750,0,,,
0.978000,-82.8750,0,,,
0.988000,-81.8750,0,,,
0.998000,-82.5000,0,,,
1.008000,-81.5000,0,,,
1.018000,-82.3750,0,,,
1.028000,-78.3750,0,,,
1.038000,-81.0000,0,,,
1.048000,-81.1250,0,,,
1.058000,-83.0000,0,,,
1.068000,-82.0000,0,,,
1.078000,-85.6250,0,,,
1.088000,-82.0000,0,,,
1.098000,-84.3750,0,,,
1.108000,-78.7500,0,,,
1.118000,-83.8750,0,,,
1.128000,-81.0000,0,,,
1.138000,-84.5000,0,,,
1.148000,-75.5000,0,,,
1.158000,-73.2500,0,,,
1.168000,-71.5000,0,,,
1.178000,-87.7500,0,,,
1.188000,-92.8750,0,,,
1.198000,-84.1250,0,,,
1.208000,-74.1250,0,,,
1.218000,-80.0000,0,,,
1.228000,-77.8750,0,,,
1.238000,-82.2500,0,,,
1.248000,-74.8750,0,,,
1.258000,-81.2500,0,,,
1.268000,-74.3750,0,,,
1.278000,-81.0000,0,,,
1.288000,-74.3750,0,,,
1.298000,-82.7500,0,,,
1.308000,-76.1250,0,,,
1.318000,-77.6250,0,,,
1.328000,-71.1250,0,,,
1.338000,-77.1250,0,,,
1.348000,-70.0000,0,,,
1.358000,-78.5000,0,,,
1.368000,-71.7500,0,,,
1.378000,-77.7500,0,,,
1.388000,-72.0000,0,,,
1.398000,-78.7500,0,,,
1.408000,-75.0000,0,,,
1.418000,-85.7500,0,,,
1.428000,-79.7500,0,,,
1.438000,-84.2500,0,,,
1.448000,-82.0000,0,,,
1.458000,-85.3750,0,,,
1.468000,-81.3750,0,,,
1.478000,-85.0000,0,,,
1.488000,-84.1250,0,,,
1.498000,-87.7500,0,,,
1.508000,-81.7500,0,,,
1.518000,-84.6250,0,,,
1.528000,-81.7500,0,,,
1.538000,-85.0000,0,,,
1.548000,-82.3750,0,,,
1.558000,-85.1250,0,,,
1.568000,-80.3750,0,,,
1.578000,-82.3750,0,,,
1.588000,-82.1250,0,,,
1.598000,-84.0000,0,,,
1.608000,-83.3750,0,,,
1.618000,-84.3750,0,,,
1.628000,-81.5000,0,,,
1.638000,-84.5000,0,,,
1.648000,-80.7500,0,,,
1.658000,-82.2500,0,,,
1.668000,-81.6250,0,,,
1.678000,-82.2500,0,,,
1.688000,-81.3750,0,,,
1.698000,-80.6250,0,,,
1.708000,-77.3750,0,,,
1.718000,-79.6250,0,,,
1.728000,-77.8750,0,,,
1.738000,-80.2500,0,,,
1.748000,-78.7500,0,,,
1.758000,-80.5000,0,,,
1.768000,-78.8750,0,,,
1.778000,-79.6250,0,,,
1.788000,-78.6250,0,,,
1.798000,-79.7500,0,,,
1.808000,-79.2500,0,,,
1.818000,-78.7500,0,,,
1.828000,-79.2500,0,,,
1.838000,-73.3750,0,,,
1.848000,-67.5000,0,,,
1.858000,-69.6250,0,,,
1.868000,-78.8750,0,,,
1.878000,-92.8750,0,,,
1.888000,-81.0000,0,,,
1.898000,-73.8750,0,,,
1.908000,-77.0000,0,,,
1.918000,-75.2500,0,,,
1.928000,-75.3750,0,,,
1.938000,-76.7500,0,,,
1.948000,-75.2500,0,,,
1.958000,-76.3750,0,,,
1.968000,-77.7500,0,,,
1.978000,-74.3750,0,,,
1.988000,-76.6250,0,,,
1.998000,-74.3750,0,,,
2.008000,-77.5000,0,,,
2.018000,-72.6250,0,,,
2.028000,-75.2500,0,,,
2.038000,-71.6250,0,,,
2.048000,-73.5000,0,,,
2.058000,-70.8750,0,,,
2.068000,-75.5000,0,,,
2.078000,-72.1250,0,,,
2.088000,-79.5000,0,,,
2.098000,-74.7500,0,,,
2.108000,-82.5000,0,,,
2.118000,-77.7500,0,,,
2.128000,-83.6250,0,,,
2.138000,-79.7500,0,,,
2.148000,-85.1250,0,,,
2.158000,-80.2500,0,,,
2.168000,-85.1250,0,,,
2.178000,-81.7500,0,,,
2.188000,-86.0000,0,,,
2.198000,-79.6250,0,,,
2.208000,-84.1250,0,,,
2.218000,-80.0000,0,,,
2.228000,-85.0000,0,,,
2.238000,-79.7500,0,,,
2.248000,-84.8750,0,,,
2.258000,-79.0000,0,,,
2.268000,-83.7500,0,,,
2.278000,-79.7500,0,,,
2.288000,-84.2500,0,,,
2.298000,-80.1250,0,,,
2.308000,-85.8750,0,,,
2.318000,-81.0000,0,,,
2.328000,-85.3750,0,,,
2.338000,-81.2500,0,,,
2.348000,-87.8750,0,,,
2.358000,-81.0000,0,,,
2.368000,-87.2500,0,,,
2.378000,-81.8750,0,,,
2.388000,-85.6250,0,,,
2.398000,-80.1250,0,,,
2.408000,-85.5000,0,,,
2.418000,-81.1250,0,,,
2.428000,-86.6250,0,,,
2.438000,-82.5000,0,,,
2.448000,-87.6250,0,,,
2.458000,-83.8750,0,,,
2.468000,-87.8750,0,,,
2.478000,-85.2500,0,,,
2.488000,-87.2500,0,,,
2.498000,-84.8750,0,,,
2.508000,-89.5000,0,,,
2.518000,-86.1250,0,,,
2.528000,-83.2500,0,,,
2.538000,-74.8750,0,,,
2.548000,-81.2500,0,,,
2.558000,-91.3750,0,,,
2.568000,-101.6250,0,,,
2.578000,-87.5000,0,,,
2.588000,-84.1250,0,,,
2.598000,-84.5000,0,,,
2.608000,-85.1250,0,,,
2.618000,-83.8750,0,,,
2.628000,-85.2500,0,,,
2.638000,-82.8750,0,,,
2.648000,-82.3750,0,,,
2.658000,-83.5000,0,,,
2.668000,-82.5000,0,,,
2.678000,-83.1250,0,,,
2.688000,-83.0000,0,,,
2.698000,-81.7500,0,,,
2.708000,-83.2500,0,,,
2.718000,-81.6250,0,,,
2.728000,-79.3750,0,,,
2.738000,-79.3750,0,,,
2.748000,-79.6250,0,,,
2.758000,-79.1250,0,,,
2.768000,-80.1250,0,,,
2.778000,-82.5000,0,,,
2.788000,-84.3750,0,,,
2.798000,-86.7500,0,,,
2.808000,-88.1250,0,,,
2.818000,-87.8750,0,,,
2.828000,-90.0000,0,,,
2.838000,-89.0000,0,,,
2.848000,-88.8750,0,,,
2.858000,-88.6250,0,,,
2.868000,-89.1250,0,,,
2.878000,-89.5000,0,,,
2.888000,-89.7500,0,,,
2.898000,-89.3750,0,,,
2.908000,-88.2500,0,,,
2.918000,-88.3750,0,,,
2.928000,-88.2500,0,,,
2.938000,-88.3750,0,,,
2.948000,-88.7500,0,,,
2.958000,-89.2500,0,,,
2.968000,-89.3750,0,,,
2.978000,-91.7500,0,,,
2.988000,-87.5000,0,,,
2.998000,-90.1250,0,,,
3.008000,-89.7500,0,,,
3.018000,-90.6250,0,,,
3.028000,-88.8750,0,,,
3.038000,-89.3750,0,,,
3.048000,-86.8750,0,,,
3.058000,-88.6250,0,,,
3.068000,-84.7500,0,,,
3.078000,-86.6250,0,,,
3.088000,-85.2500,0,,,
3.098000,-88.2500,0,,,
3.108000,-83.3750,0,,,
3.118000,-89.2500,0,,,
3.128000,-86.0000,0,,,
3.138000,-90.1250,0,,,
3.148000,-87.3750,0,,,
3.158000,-88.7500,0,,,
3.168000,-85.3750,0,,,
3.178000,-91.0000,0,,,
3.188000,-85.2500,0,,,
3.198000,-90.5000,0,,,
3.208000,-83.5000,0,,,
3.218000,-84.2500,0,,,
3.228000,-74.6250,0,,,
3.238000,-87.5000,0,,,
3.248000,-97.6250,0,,,
3.258000,-100.1250,0,,,
3.268000,-83.2500,0,,,
3.278000,-87.5000,0,,,
3.288000,-83.7500,0,,,
3.298000,-86.8750,0,,,
3.308000,-83.5000,0,,,
3.318000,-86.1250,0,,,
3.328000,-80.5000,0,,,
3.338000,-83.2500,0,,,
3.348000,-79.1250,0,,,
3.358000,-81.5000,0,,,
3.368000,-76.2500,0,,,
3.378000,-81.0000,0,,,
3.388000,-74.6250,0,,,
3.398000,-76.0000,0,,,
3.408000,-71.0000,0,,,
3.418000,-74.1250,0,,,
3.428000,-69.7500,0,,,
3.438000,-73.3750,0,,,
3.448000,-68.2500,0,,,
3.458000,-72.3750,0,,,
3.468000,-72.5000,0,,,
3.478000,-76.3750,0,,,
3.488000,-75.7500,0,,,
3.498000,-80.2500,0,,,
3.508000,-77.2500,0,,,
3.518000,-82.0000,0,,,
3.528000,-78.1250,0,,,
3.538000,-81.8750,0,,,
3.548000,-78.5000,0,,,
3.558000,-82.2500,0,,,
3.568000,-79.7500,0,,,
3.578000,-81.8750,0,,,
3.588000,-79.6250,0,,,
3.598000,-81.7500,0,,,
3.608000,-79.7500,0,,,
3.618000,-81.2500,0,,,
3.628000,-80.1250,0,,,
3.638000,-82.1250,0,,,
3.648000,-80.3750,0,,,
3.658000,-82.8750,0,,,
3.668000,-81.8750,0,,,
3.678000,-83.2500,0,,,
3.688000,-82.3750,0,,,
3.698000,-83.3750,0,,,
3.708000,-82.5000,0,,,
3.718000,-82.2500,0,,,
3.728000,-81.8750,0,,,
3.738000,-82.8750,0,,,
3.748000,-81.5000,0,,,
3.758000,-81.7500,0,,,
3.768000,-81.3750,0,,,
3.778000,-82.6250,0,,,
3.788000,-82.3750,0,,,
3.798000,-78.3750,0,,,
3.808000,-81.5000,0,,,
3.818000,-83.8750,0,,,
3.828000,-83.8750,0,,,
3.838000,-84.5000,0,,,
3.848000,-85.1250,0,,,
3.858000,-86.0000,0,,,
3.868000,-85.3750,0,,,
3.878000,-86.7500,0,,,
3.888000,-85.8750,0,,,
3.898000,-86.5000,0,,,
3.908000,-82.5000,0,,,
3.918000,-79.0000,0,,,
3.928000,-76.5000,0,,,
3.938000,-86.6250,0,,,
3.948000,-101.5000,0,,,
3.958000,-93.3750,0,,,
3.968000,-82.7500,0,,,
3.978000,-83.8750,0,,,
3.988000,-83.2500,0,,,
3.998000,-86.2500,0,,,
4.008000,-82.0000,0,,,
4.018000,-80.3750,0,,,
4.028000,-79.2500,0,,,
4.038000,-81.1250,0,,,
4.048000,-90.2500,0,,,
4.058000,-88.0000,0,,,
4.068000,-88.5000,0,,,
4.078000,-93.7500,0,,,
4.088000,-92.7500,0,,,
4.098000,-89.3750,0,,,
4.108000,-91.2500,0,,,
4.118000,-91.2500,0,,,
4.128000,-90.5000,0,,,
4.138000,-89.7500,0,,,
4.148000,-93.1250,0,,,
4.158000,-87.1250,0,,,
4.168000,-92.6250,0,,,
4.178000,-88.2500,0,,,
4.188000,-92.6250,0,,,
4.198000,-89.2500,0,,,
4.208000,-91.8750,0,,,
4.218000,-89.8750,0,,,
4.228000,-81.2500,0,,,
4.238000,-90.1250,0,,,
4.248000,-91.2500,0,,,
4.258000,-84.5000,0,,,
4.268000,-80.5000,0,,,
4.278000,-80.6250,0,,,
4.288000,-92.1250,0,,,
4.298000,-94.0000,0,,,
4.308000,-94.3750,0,,,
4.318000,-88.6250,0,,,
4.328000,-87.2500,0,,,
4.338000,-90.0000,0,,,
4.348000,-91.2500,0,,,
4.358000,-89.5000,0,,,
4.368000,-91.7500,0,,,
4.378000,-92.0000,0,,,
4.388000,-87.0000,0,,,
4.398000,-87.3750,0,,,
4.408000,-80.1250,0,,,
4.418000,-93.1250,0,,,
4.428000,-100.3750,0,,,
4.438000,-100.8750,0,,,
4.448000,-86.5000,0,,,
4.458000,-93.5000,0,,,
4.468000,-88.6250,0,,,
4.478000,-94.7500,0,,,
4.488000,-91.8750,0,,,
4.498000,-92.3750,0,,,
4.508000,-91.6250,0,,,
4.518000,-99.8750,0,,,
4.528000,-102.3750,0,,,
4.538000,-100.8750,0,,,
4.548000,-116.3750,0,,,
4.558000,-117.2500,0,,,
4.568000,-117.1250,0,,,
4.578000,-116.8750,0,,,
4.588000,-118.1250,0,,,
4.598000,-108.8750,0,,,
4.608000,-99.3750,0,,,
4.618000,-126.7500,0,,,
4.628000,-106.1250,0,,,
4.638000,-120.1250,0,,,
4.648000,-111.7500,0,,,
4.658000,-103.7500,0,,,
4.668000,-103.3750,0,,,
4.678000,-96.3750,0,,,
4.688000,-90.7500,0,,,
4.698000,-84.1250,0,,,
4.708000,-85.6250,0,,,
4.718000,-81.1250,0,,,
4.728000,-87.3750,0,,,
4.738000,-79.8750,0,,,
4.748000,-91.0000,0,,,
4.758000,-84.8750,0,,,
4.768000,-82.1250,0,,,
4.778000,-76.8750,0,,,
4.788000,-81.2500,0,,,
4.798000,-74.0000,0,,,
4.808000,-76.5000,0,,,
4.818000,-77.3750,0,,,
4.828000,-75.7500,0,,,
4.838000,-70.3750,0,,,
4.848000,-67.8750,0,,,
4.858000,-70.5000,0,,,
4.868000,-76.8750,0,,,
4.878000,-82.1250,0,,,
4.888000,-84.0000,0,,,
4.898000,-84.5000,0,,,
4.908000,-78.6250,0,,,
4.918000,-82.1250,0,,,
4.928000,-84.1250,0,,,
4.938000,-81.7500,0,,,
4.948000,-83.6250,0,,,
4.958000,-82.2500,0,,,
4.968000,-84.7500,0,,,
4.978000,-85.3750,0,,,
4.988000,-81.8750,0,,,
4.998000,-84.5000,0,,,
5.008000,-78.1250,0,,,
5.018000,-76.5000,0,,,
5.028000,-103.2500,0,,,
5.038000,-84.6250,0,,,
5.048000,-83.3750,0,,,
5.058000,-81.8750,0,,,
5.068000,-78.7500,0,,,
5.078000,-87.7500,0,,,
5.088000,-88.0000,0,,,
5.098000,-90.2500,0,,,
5.108000,-88.1250,0,,,
5.118000,-87.6250,0,,,
5.128000,-88.7500,0,,,
5.138000,-92.2500,0,,,
5.148000,-89.7500,0,,,
5.158000,-96.0000,0,,,
5.168000,-89.7500,0,,,
5.178000,-96.8750,0,,,
5.188000,-91.2500,0,,,
5.198000,-94.1250,0,,,
5.208000,-93.8750,0,,,
5.218000,-89.3750,0,,,
5.228000,-83.2500,0,,,
5.238000,-85.2500,0,,,
5.248000,-90.8750,0,,,
5.258000,-90.3750,0,,,
5.268000,-96.2500,0,,,
5.278000,-93.8750,0,,,
5.288000,-92.7500,0,,,
5.298000,-94.5000,0,,,
5.308000,-91.6250,0,,,
5.318000,-89.7500,0,,,
5.328000,-92.8750,0,,,
5.338000,-94.8750,0,,,
5.348000,-96.2500,0,,,
5.358000,-98.3750,0,,,
5.368000,-96.0000,0,,,
5.378000,-91.1250,0,,,
5.388000,-82.3750,0,,,
5.398000,-85.7500,0,,,
5.408000,-98.1250,0,,,
5.418000,-108.5000,0,,,
5.428000,-88.6250,0,,,
5.438000,-90.7500,0,,,
5.448000,-88.5000,0,,,
5.458000,-86.6250,0,,,
5.468000,-91.7500,0,,,
5.478000,-90.5000,0,,,
5.488000,-91.0000,0,,,
5.498000,-97.3750,0,,,
5.508000,-90.7500,0,,,
5.518000,-92.5000,0,,,
5.528000,-89.6250,0,,,
5.538000,-91.5000,0,,,
5.548000,-93.2500,0,,,
5.558000,-86.5000,0,,,
5.568000,-85.6250,0,,,
5.578000,-78.2500,0,,,
5.588000,-98.7500,0,,,
5.598000,-84.3750,0,,,
5.608000,-87.3750,0,,,
5.618000,-90.3750,0,,,
5.628000,-82.7500,0,,,
5.638000,-86.8750,0,,,
5.648000,-81.1250,0,,,
5.658000,-84.7500,0,,,
5.668000,-83.2500,0,,,
5.678000,-80.5000,0,,,
5.688000,-83.7500,0,,,
5.698000,-92.6250,0,,,
5.708000,-87.5000,0,,,
5.718000,-89.2500,0,,,
5.728000,-87.2500,0,,,
5.738000,-92.5000,0,,,
5.748000,-86.2500,0,,,
5.758000,-87.7500,0,,,
5.768000,-83.3750,0,,,
5.778000,-82.8750,0,,,
5.788000,-90.2500,0,,,
5.798000,-82.5000,0,,,
5.808000,-91.8750,0,,,
5.818000,-87.3750,0,,,
5.828000,-91.8750,0,,,
5.838000,-82.8750,0,,,
5.848000,-83.8750,0,,,
5.858000,-71.6250,0,,,
5.868000,-79.3750,0,,,
5.878000,-91.7500,0,,,
5.888000,-101.8750,0,,,
5.898000,-80.1250,0,,,
5.908000,-86.1250,0,,,
5.918000,-80.0000,0,,,
5.928000,-86.5000,0,,,
5.938000,-80.0000,0,,,
5.948000,-86.1250,0,,,
5.958000,-79.1250,0,,,
5.968000,-81.1250,0,,,
5.978000,-81.8750,0,,,
5.988000,-79.5000,0,,,
5.998000,-80.6250,0,,,
6.008000,-76.1250,0,,,
6.018000,-82.3750,0,,,
6.028000,-73.6250,0,,,
6.038000,-78.1250,0,,,
6.048000,-74.8750,0,,,
6.058000,-79.2500,0,,,
6.068000,-77.8750,0,,,
6.078000,-83.1250,0,,,
6.088000,-82.3750,0,,,
6.098000,-86.2500,0,,,
6.108000,-83.2500,0,,,
6.118000,-87.1250,0,,,
6.128000,-84.3750,0,,,
6.138000,-86.1250,0,,,
6.148000,-84.3750,0,,,
6.158000,-86.2500,0,,,
6.168000,-86.1250,0,,,
6.178000,-85.6250,0,,,
6.188000,-83.6250,0,,,
6.198000,-86.5000,0,,,
6.208000,-84.7500,0,,,
6.218000,-86.6250,0,,,
6.228000,-86.6250,0,,,
6.238000,-86.7500,0,,,
6.248000,-86.5000,0,,,
6.258000,-86.1250,0,,,
6.268000,-87.1250,0,,,
6.278000,-86.5000,0,,,
6.288000,-87.5000,0,,,
6.298000,-86.0000,0,,,
6.308000,-86.8750,0,,,
6.318000,-84.7500,0,,,
6.328000,-87.3750,0,,,
6.338000,-84.6250,0,,,
6.348000,-85.2500,3,100.30,3.43,16.81
6.358000,-84.2500,3,100.30,3.43,16.81
6.368000,-86.1250,3,100.30,3.43,16.81
6.378000,-84.2500,3,100.30,3.43,16.81
6.388000,-88.2500,3,100.30,3.43,16.81
6.398000,-86.3750,3,100.30,3.43,16.81
6.408000,-88.5000,3,100.30,3.43,16.81
6.418000,-84.7500,3,100.30,3.43,16.81
6.428000,-88.2500,3,100.30,3.43,16.81
6.438000,-83.8750,3,100.30,3.43,16.81
6.448000,-87.3750,3,100.30,3.43,16.81
6.458000,-83.2500,3,100.30,3.43,16.81
6.468000,-83.7500,3,100.30,3.43,16.81
6.478000,-72.6250,3,100.30,3.43,16.81
6.488000,-78.0000,3,100.30,3.43,16.81
6.498000,-84.3750,3,100.30,3.43,16.81
6.508000,-102.6250,3,100.30,3.43,16.81
6.518000,-85.3750,3,100.30,3.43,16.81
6.528000,-83.1250,3,100.30,3.43,16.81
6.538000,-77.6250,3,100.30,3.43,16.81
6.548000,-84.1250,3,100.30,3.43,16.81
6.558000,-77.2500,3,100.30,3.43,16.81
6.568000,-82.3750,3,100.30,3.43,16.81
6.578000,-75.6250,3,100.30,3.43,16.81
6.588000,-81.2500,3,100.30,3.43,16.81
6.598000,-73.6250,3,100.30,3.43,16.81
6.608000,-80.1250,3,100.30,3.43,16.81
6.618000,-72.2500,3,100.30,3.43,16.81
6.628000,-78.6250,3,100.30,3.43,16.81
6.638000,-70.2500,3,100.30,3.43,16.81
6.648000,-75.8750,3,100.30,3.43,16.81
6.658000,-66.1250,3,100.30,3.43,16.81
6.668000,-74.0000,3,100.30,3.43,16.81
6.678000,-64.2500,3,100.30,3.43,16.81
6.688000,-72.5000,3,100.30,3.43,16.81
6.698000,-65.3750,3,100.30,3.43,16.81
6.708000,-72.7500,3,100.30,3.43,16.81
6.718000,-67.5000,3,100.30,3.43,16.81
6.728000,-76.6250,3,100.30,3.43,16.81
6.738000,-71.2500,3,100.30,3.43,16.81
6.748000,-79.7500,3,100.30,3.43,16.81
6.758000,-74.5000,3,100.30,3.43,16.81
6.768000,-81.5000,3,100.30,3.43,16.81
6.778000,-74.3750,3,100.30,3.43,16.81
6.788000,-80.8750,3,100.30,3.43,16.81
6.798000,-73.7500,3,100.30,3.43,16.81
6.808000,-77.2500,3,100.30,3.43,16.81
6.818000,-72.5000,3,100.30,3.43,16.81
6.828000,-76.1250,3,100.30,3.43,16.81
6.838000,-71.5000,3,100.30,3.43,16.81
6.848000,-75.7500,3,100.30,3.43,16.81
6.858000,-72.0000,3,100.30,3.43,16.81
6.868000,-75.1250,3,100.30,3.43,16.81
6.878000,-70.2500,3,100.30,3.43,16.81
6.888000,-74.0000,3,100.30,3.43,16.81
6.898000,-69.8750,3,100.30,3.43,16.81
6.908000,-73.1250,3,100.30,3.43,16.81
6.918000,-68.8750,3,100.30,3.43,16.81
6.928000,-72.0000,3,100.30,3.43,16.81
6.938000,-68.3750,3,100.30,3.43,16.81
6.948000,-71.6250,3,100.30,3.43,16.81
6.958000,-69.0000,3,100.30,3.43,16.81
6.968000,-70.7500,3,100.30,3.43,16.81
6.978000,-67.7500,3,100.30,3.43,16.81
6.988000,-69.6250,3,100.30,3.43,16.81
6.998000,-66.7500,3,100.30,3.43,16.81
7.008000,-67.5000,3,100.30,3.43,16.81
7.018000,-65.7500,3,100.30,3.43,16.81
7.028000,-66.7500,3,100.30,3.43,16.81
7.038000,-64.1250,3,100.30,3.43,16.81
7.048000,-65.5000,3,100.30,3.43,16.81
7.058000,-65.0000,3,100.30,3.43,16.81
7.068000,-66.8750,3,100.30,3.43,16.81
7.078000,-66.7500,3,100.30,3.43,16.81
7.088000,-67.7500,3,100.30,3.43,16.81
7.098000,-66.3750,3,100.30,3.43,16.81
7.108000,-68.8750,3,100.30,3.43,16.81
7.118000,-67.0000,3,100.30,3.43,16.81
7.128000,-69.2500,3,100.30,3.43,16.81
7.138000,-67.7500,3,100.30,3.43,16.81
7.148000,-69.5000,3,100.30,3.43,16.81
7.158000,-63.2500,3,100.30,3.43,16.81
7.168000,-60.0000,3,100.30,3.43,16.81
7.178000,-60.1250,3,100.30,3.43,16.81
7.188000,-71.8750,3,100.30,3.43,16.81
7.198000,-83.8750,3,100.30,3.43,16.81
7.208000,-74.1250,3,100.30,3.43,16.81
7.218000,-66.3750,3,100.30,3.43,16.81
7.228000,-66.7500,3,100.30,3.43,16.81
7.238000,-67.2500,3,100.30,3.43,16.81
7.248000,-66.8750,3,100.30,3.43,16.81
7.258000,-66.8750,3,100.30,3.43,16.81
7.268000,-67.2500,3,100.30,3.43,16.81
7.278000,-68.2500,3,100.30,3.43,16.81
7.288000,-67.5000,3,100.30,3.43,16.81
7.298000,-68.1250,3,100.30,3.43,16.81
7.308000,-67.7500,3,100.30,3.43,16.81
7.318000,-67.6250,3,100.30,3.43,16.81
7.328000,-65.8750,3,100.30,3.43,16.81
7.338000,-67.5000,3,100.30,3.43,16.81
7.348000,-65.6250,3,100.30,3.43,16.81
7.358000,-66.6250,3,100.30,3.43,16.81
7.368000,-64.6250,3,100.30,3.43,16.81
7.378000,-68.3750,3,100.30,3.43,16.81
7.388000,-66.3750,3,100.30,3.43,16.81
7.398000,-70.3750,3,100.30,3.43,16.81
7.408000,-69.3750,3,100.30,3.43,16.81
7.418000,-75.3750,3,100.30,3.43,16.81
7.428000,-73.3750,3,100.30,3.43,16.81
7.438000,-79.8750,3,100.30,3.43,16.81
7.448000,-76.6250,3,100.30,3.43,16.81
7.458000,-82.2500,3,100.30,3.43,16.81
7.468000,-77.6250,3,100.30,3.43,16.81
7.478000,-82.2500,3,100.30,3.43,16.81
7.488000,-78.2500,3,100.30,3.43,16.81
7.498000,-83.2500,3,100.30,3.43,16.81
7.508000,-78.2500,3,100.30,3.43,16.81
7.518000,-82.8750,3,100.30,3.43,16.81
7.528000,-77.7500,3,100.30,3.43,16.81
7.538000,-82.8750,3,100.30,3.43,16.81
7.548000,-77.7500,3,100.30,3.43,16.81
7.558000,-83.0000,3,100.30,3.43,16.81
7.568000,-77.2500,3,100.30,3.43,16.81
7.578000,-84.5000,3,100.30,3.43,16.81
7.588000,-77.2500,3,100.30,3.43,16.81
7.598000,-83.5000,3,100.30,3.43,16.81
7.608000,-77.2500,3,100.30,3.43,16.81
7.618000,-83.6250,3,100.30,3.43,16.81
7.628000,-76.2500,3,100.30,3.43,16.81
7.638000,-83.6250,3,100.30,3.43,16.81
7.648000,-76.3750,3,100.30,3.43,16.81
7.658000,-83.5000,3,100.30,3.43,16.81
7.668000,-76.3750,3,100.30,3.43,16.81
7.678000,-83.8750,3,100.30,3.43,16.81
7.688000,-76.2500,3,100.30,3.43,16.81
7.698000,-83.1250,3,100.30,3.43,16.81
7.708000,-76.0000,3,100.30,3.43,16.81
7.718000,-82.5000,3,100.30,3.43,16.81
7.728000,-74.7500,3,100.30,3.43,16.81
7.738000,-80.3750,3,100.30,3.43,16.81
7.748000,-73.5000,3,100.30,3.43,16.81
7.758000,-80.1250,3,100.30,3.43,16.81
7.768000,-72.6250,3,100.30,3.43,16.81
7.778000,-79.2500,3,100.30,3.43,16.81
7.788000,-72.0000,3,100.30,3.43,16.81
7.798000,-78.0000,3,100.30,3.43,16.81
7.808000,-72.1250,3,100.30,3.43,16.81
7.818000,-76.8750,3,100.30,3.43,16.81
7.828000,-71.5000,3,100.30,3.43,16.81
7.838000,-76.2500,3,100.30,3.43,16.81
7.848000,-71.1250,3,100.30,3.43,16.81
7.858000,-75.3750,3,100.30,3.43,16.81
7.868000,-68.2500,3,100.30,3.43,16.81
7.878000,-68.7500,3,100.30,3.43,16.81
7.888000,-57.5000,3,100.30,3.43,16.81
7.898000,-64.6250,3,100.30,3.43,16.81
7.908000,-77.8750,3,100.30,3.43,16.81
7.918000,-84.2500,3,100.30,3.43,16.81
7.928000,-67.7500,3,100.30,3.43,16.81
7.938000,-66.7500,3,100.30,3.43,16.81
7.948000,-65.7500,3,100.30,3.43,16.81
7.958000,-67.3750,3,100.30,3.43,16.81
7.968000,-64.8750,3,100.30,3.43,16.81
7.978000,-66.0000,3,100.30,3.43,16.81
7.988000,-63.6250,3,100.30,3.43,16.81
7.998000,-63.7500,3,100.30,3.43,16.81
8.008000,-61.6250,3,100.30,3.43,16.81
8.018000,-62.2500,3,100.30,3.43,16.81
8.028000,-59.8750,3,100.30,3.43,16.81
8.038000,-60.8750,3,100.30,3.43,16.81
8.048000,-58.1250,3,100.30,3.43,16.81
8.058000,-58.8750,3,100.30,3.43,16.81
8.068000,-57.0000,3,100.30,3.43,16.81
8.078000,-56.7500,3,100.30,3.43,16.81
8.088000,-55.8750,3,100.30,3.43,16.81
8.098000,-57.0000,3,100.30,3.43,16.81
8.108000,-56.7500,3,100.30,3.43,16.81
8.118000,-55.8750,3,100.30,3.43,16.81
8.128000,-64.0000,3,100.30,3.43,16.81
8.138000,-65.5000,3,100.30,3.43,16.81
8.148000,-66.2500,3,100.30,3.43,16.81
8.158000,-65.3750,3,100.30,3.43,16.81
8.168000,-67.2500,3,100.30,3.43,16.81
8.178000,-77.2500,3,100.30,3.43,16.81
8.188000,-75.2500,3,100.30,3.43,16.81
8.198000,-74.3750,3,100.30,3.43,16.81
8.208000,-73.5000,3,100.30,3.43,16.81
8.218000,-73.8750,3,100.30,3.43,16.81
8.228000,-74.7500,3,100.30,3.43,16.81
8.238000,-81.0000,3,100.30,3.43,16.81
8.248000,-75.1250,3,100.30,3.43,16.81
8.258000,-81.1250,3,100.30,3.43,16.81
8.268000,-75.7500,3,100.30,3.43,16.81
8.278000,-81.1250,3,100.30,3.43,16.81
8.288000,-75.2500,3,100.30,3.43,16.81
8.298000,-76.5000,3,100.30,3.43,16.81
8.308000,-65.5000,3,100.30,3.43,16.81
8.318000,-75.0000,3,100.30,3.43,16.81
8.328000,-83.0000,3,100.30,3.43,16.81
8.338000,-81.6250,3,100.30,3.43,16.81
8.348000,-80.1250,3,100.30,3.43,16.81
8.358000,-78.3750,3,100.30,3.43,16.81
8.368000,-89.6250,3,100.30,3.43,16.81
8.378000,-89.1250,3,100.30,3.43,16.81
8.388000,-100.3750,3,100.30,3.43,16.81
8.398000,-98.8750,3,100.30,3.43,16.81
8.408000,-102.8750,3,100.30,3.43,16.81
8.418000,-102.1250,3,100.30,3.43,16.81
8.428000,-97.7500,3,100.30,3.43,16.81
8.438000,-98.5000,3,100.30,3.43,16.81
8.448000,-100.6250,3,100.30,3.43,16.81
8.458000,-104.7500,3,100.30,3.43,16.81
8.468000,-99.7500,3,100.30,3.43,16.81
8.478000,-98.3750,3,100.30,3.43,16.81
8.488000,-96.3750,3,100.30,3.43,16.81
8.498000,-97.8750,3,100.30,3.43,16.81
8.508000,-88.3750,3,100.30,3.43,16.81
8.518000,-98.1250,3,100.30,3.43,16.81
8.528000,-107.3750,3,100.30,3.43,16.81
8.538000,-113.6250,3,100.30,3.43,16.81
8.548000,-97.2500,3,100.30,3.43,16.81
8.558000,-100.8750,3,100.30,3.43,16.81
8.568000,-97.0000,3,100.30,3.43,16.81
8.578000,-102.5000,3,100.30,3.43,16.81
8.588000,-101.2500,3,100.30,3.43,16.81
8.598000,-94.3750,3,100.30,3.43,16.81
8.608000,-94.1250,3,100.30,3.43,16.81
8.618000,-96.1250,3,100.30,3.43,16.81
8.628000,-104.7500,3,100.30,3.43,16.81
8.638000,-98.8750,3,100.30,3.43,16.81
8.648000,-96.2500,3,100.30,3.43,16.81
8.658000,-88.7500,3,100.30,3.43,16.81
8.668000,-86.7500,3,100.30,3.43,16.81
8.678000,-85.6250,3,100.30,3.43,16.81
8.688000,-84.7500,3,100.30,3.43,16.81
8.698000,-87.2500,3,100.30,3.43,16.81
8.708000,-84.2500,3,100.30,3.43,16.81
8.718000,-71.7500,3,100.30,3.43,16.81
8.728000,-85.6250,3,100.30,3.43,16.81
8.738000,-84.2500,3,100.30,3.43,16.81
8.748000,-78.6250,3,100.30,3.43,16.81
8.758000,-84.1250,3,100.30,3.43,16.81
8.768000,-85.2500,3,100.30,3.43,16.81
8.778000,-83.7500,3,100.30,3.43,16.81
8.788000,-75.1250,3,100.30,3.43,16.81
8.798000,-73.3750,3,100.30,3.43,16.81
8.808000,-74.8750,3,100.30,3.43,16.81
8.818000,-72.8750,3,100.30,3.43,16.81
8.828000,-76.3750,3,100.30,3.43,16.81
8.838000,-73.8750,3,100.30,3.43,16.81
8.848000,-76.2500,3,100.30,3.43,16.81
8.858000,-72.7500,3,100.30,3.43,16.81
8.868000,-69.2500,3,100.30,3.43,16.81
8.878000,-64.1250,3,100.30,3.43,16.81
8.888000,-87.7500,3,100.30,3.43,16.81
8.898000,-75.1250,3,100.30,3.43,16.81
8.908000,-73.3750,3,100.30,3.43,16.81
8.918000,-75.7500,3,100.30,3.43,16.81
8.928000,-72.8750,3,100.30,3.43,16.81
8.938000,-68.1250,3,100.30,3.43,16.81
8.948000,-69.5000,3,100.30,3.43,16.81
8.958000,-64.6250,3,100.30,3.43,16.81
8.968000,-72.8750,3,100.30,3.43,16.81
8.978000,-77.5000,3,100.30,3.43,16.81
8.988000,-75.8750,3,100.30,3.43,16.81
8.998000,-77.2500,3,100.30,3.43,16.81
9.008000,-75.8750,3,100.30,3.43,16.81
9.018000,-78.0000,3,100.30,3.43,16.81
9.028000,-76.3750,3,100.30,3.43,16.81
9.038000,-77.6250,3,100.30,3.43,16.81
9.048000,-75.8750,3,100.30,3.43,16.81
9.058000,-82.2500,3,100.30,3.43,16.81
9.068000,-82.7500,3,100.30,3.43,16.81
9.078000,-85.0000,3,100.30,3.43,16.81
9.088000,-88.7500,3,100.30,3.43,16.81
9.098000,-88.8750,3,100.30,3.43,16.81
9.108000,-85.2500,3,100.30,3.43,16.81
9.118000,-84.3750,3,100.30,3.43,16.81
9.128000,-86.7500,3,100.30,3.43,16.81
9.138000,-94.8750,3,100.30,3.43,16.81
9.148000,-112.7500,3,100.30,3.43,16.81
9.158000,-96.1250,3,100.30,3.43,16.81
9.168000,-94.8750,3,100.30,3.43,16.81
9.178000,-95.0000,3,100.30,3.43,16.81
9.188000,-93.2500,3,100.30,3.43,16.81
9.198000,-91.3750,3,100.30,3.43,16.81
9.208000,-90.5000,3,100.30,3.43,16.81
9.218000,-90.0000,3,100.30,3.43,16.81
9.228000,-90.8750,3,100.30,3.43,16.81
9.238000,-89.6250,3,100.30,3.43,16.81
9.248000,-92.0000,3,100.30,3.43,16.81
9.258000,-95.3750,3,100.30,3.43,16.81
9.268000,-95.7500,3,100.30,3.43,16.81
9.278000,-97.7500,3,100.30,3.43,16.81
9.288000,-96.6250,3,100.30,3.43,16.81
9.298000,-95.7500,3,100.30,3.43,16.81
9.308000,-96.3750,3,100.30,3.43,16.81
9.318000,-99.5000,3,100.30,3.43,16.81
9.328000,-94.7500,3,100.30,3.43,16.81
9.338000,-94.8750,3,100.30,3.43,16.81
9.348000,-95.8750,3,100.30,3.43,16.81
9.358000,-95.5000,3,100.30,3.43,16.81
9.368000,-98.8750,3,100.30,3.43,16.81
9.378000,-96.1250,3,100.30,3.43,16.81
9.388000,-98.1250,3,100.30,3.43,16.81
9.398000,-96.6250,3,100.30,3.43,16.81
9.408000,-86.2500,3,100.30,3.43,16.81
9.418000,-91.1250,3,100.30,3.43,16.81
9.428000,-93.3750,3,100.30,3.43,16.81
9.438000,-89.2500,3,100.30,3.43,16.81
9.448000,-92.2500,3,100.30,3.43,16.81
9.458000,-88.5000,3,100.30,3.43,16.81
9.468000,-85.5000,3,100.30,3.43,16.81
9.478000,-87.2500,3,100.30,3.43,16.81
9.488000,-89.0000,3,100.30,3.43,16.81
9.498000,-94.1250,3,100.30,3.43,16.81
9.508000,-93.6250,3,100.30,3.43,16.81
9.518000,-92.6250,3,100.30,3.43,16.81
9.528000,-95.1250,3,100.30,3.43,16.81
9.538000,-93.5000,3,100.30,3.43,16.81
9.548000,-93.6250,3,100.30,3.43,16.81
9.558000,-94.1250,3,100.30,3.43,16.81
9.568000,-93.5000,3,100.30,3.43,16.81
9.578000,-92.1250,3,100.30,3.43,16.81
9.588000,-93.6250,3,100.30,3.43,16.81
9.598000,-93.1250,3,100.30,3.43,16.81
9.608000,-94.5000,3,100.30,3.43,16.81
9.618000,-96.2500,3,100.30,3.43,16.81
9.628000,-89.8750,3,100.30,3.43,16.81
9.638000,-91.1250,3,100.30,3.43,16.81
9.648000,-92.0000,3,100.30,3.43,16.81
9.658000,-87.7500,3,100.30,3.43,16.81
9.668000,-87.7500,3,100.30,3.43,16.81
9.678000,-84.7500,3,100.30,3.43,16.81
9.688000,-85.5000,3,100.30,3.43,16.81
9.698000,-90.8750,3,100.30,3.43,16.81
9.708000,-92.3750,3,100.30,3.43,16.81
9.718000,-94.8750,3,100.30,3.43,16.81
9.728000,-95.1250,3,100.30,3.43,16.81
9.738000,-96.5000,3,100.30,3.43,16.81
9.748000,-97.3750,3,100.30,3.43,16.81
9.758000,-96.8750,3,100.30,3.43,16.81
9.768000,-95.0000,3,100.30,3.43,16.81
9.778000,-96.5000,3,100.30,3.43,16.81
9.788000,-97.2500,3,100.30,3.43,16.81
9.798000,-97.0000,3,100.30,3.43,16.81
9.808000,-96.8750,3,100.30,3.43,16.81
9.818000,-95.2500,3,100.30,3.43,16.81
9.828000,-97.7500,3,100.30,3.43,16.81
9.838000,-100.2500,3,100.30,3.43,16.81
9.848000,-95.3750,3,100.30,3.43,16.81
9.858000,-99.2500,3,100.30,3.43,16.81
9.868000,-95.6250,3,100.30,3.43,16.81
9.878000,-98.6250,3,100.30,3.43,16.81
9.888000,-102.1250,3,100.30,3.43,16.81
9.898000,-115.7500,3,100.30,3.43,16.81
9.908000,-96.5000,3,100.30,3.43,16.81
9.918000,-95.6250,3,100.30,3.43,16.81
9.928000,-93.1250,3,100.30,3.43,16.81
9.938000,-96.2500,3,100.30,3.43,16.81
9.948000,-93.3750,3,100.30,3.43,16.81
9.958000,-91.3750,3,100.30,3.43,16.81
9.968000,-92.3750,3,100.30,3.43,16.81
9.978000,-92.7500,3,100.30,3.43,16.81
9.988000,-92.7500,3,100.30,3.43,16.81
9.998000,-91.7500,3,100.30,3.43,16.81
10.008000,-90.6250,3,100.30,3.43,16.81
10.018000,-89.1250,3,100.30,3.43,16.81
10.028000,-86.5000,3,100.30,3.43,16.81
10.038000,-88.8750,3,100.30,3.43,16.81
10.048000,-84.8750,3,100.30,3.43,16.81
10.058000,-88.0000,3,100.30,3.43,16.81
10.068000,-84.3750,3,100.30,3.43,16.81
10.078000,-89.0000,3,100.30,3.43,16.81
10.088000,-88.0000,3,100.30,3.43,16.81
10.098000,-91.3750,3,100.30,3.43,16.81
10.108000,-92.0000,3,100.30,3.43,16.81
10.118000,-93.5000,3,100.30,3.43,16.81
10.128000,-95.0000,3,100.30,3.43,16.81
10.138000,-93.8750,3,100.30,3.43,16.81
10.148000,-94.6250,3,100.30,3.43,16.81
10.158000,-92.0000,3,100.30,3.43,16.81
10.168000,-93.1250,3,100.30,3.43,16.81
10.178000,-92.7500,3,100.30,3.43,16.81
10.188000,-92.2500,3,100.30,3.43,16.81
10.198000,-91.6250,3,100.30,3.43,16.81
10.208000,-91.7500,3,100.30,3.43,16.81
10.218000,-91.2500,3,100.30,3.43,16.81
10.228000,-91.1250,3,100.30,3.43,16.81
10.238000,-89.7500,3,100.30,3.43,16.81
10.248000,-89.8750,3,100.30,3.43,16.81
10.258000,-89.6250,3,100.30,3.43,16.81
10.268000,-90.1250,3,100.30,3.43,16.81
10.278000,-88.7500,3,100.30,3.43,16.81
10.288000,-89.8750,3,100.30,3.43,16.81
10.298000,-90.5000,3,100.30,3.43,16.81
10.308000,-90.2500,3,100.30,3.43,16.81
10.318000,-89.6250,3,100.30,3.43,16.81
10.328000,-90.0000,3,100.30,3.43,16.81
10.338000,-89.6250,3,100.30,3.43,16.81
10.348000,-89.0000,3,100.30,3.43,16.81
10.358000,-88.2500,3,100.30,3.43,16.81
10.368000,-87.6250,3,100.30,3.43,16.81
10.378000,-86.7500,3,100.30,3.43,16.81
10.388000,-87.8750,3,100.30,3.43,16.81
10.398000,-86.8750,3,100.30,3.43,16.81
10.408000,-88.1250,3,100.30,3.43,16.81
10.418000,-87.3750,3,100.30,3.43,16.81
10.428000,-88.8750,3,100.30,3.43,16.81
10.438000,-88.6250,3,100.30,3.43,16.81
10.448000,-89.5000,3,100.30,3.43,16.81
10.458000,-87.5000,3,100.30,3.43,16.81
10.468000,-88.8750,5,97.74,0.53,15.59
10.478000,-86.5000,5,97.74,0.53,15.59
10.488000,-87.2500,5,97.74,0.53,15.59
10.498000,-84.7500,5,97.74,0.53,15.59
10.508000,-86.2500,5,97.74,0.53,15.59
10.518000,-78.6250,5,97.74,0.53,15.59
10.528000,-74.8750,5,97.74,0.53,15.59
10.538000,-75.6250,5,97.74,0.53,15.59
10.548000,-96.3750,5,97.74,0.53,15.59
10.558000,-95.6250,5,97.74,0.53,15.59
10.568000,-86.7500,5,97.74,0.53,15.59
10.578000,-79.8750,5,97.74,0.53,15.59
10.588000,-84.6250,5,97.74,0.53,15.59
10.598000,-81.7500,5,97.74,0.53,15.59
10.608000,-83.3750,5,97.74,0.53,15.59
10.618000,-79.6250,5,97.74,0.53,15.59
10.628000,-81.8750,5,97.74,0.53,15.59
10.638000,-79.1250,5,97.74,0.53,15.59
10.648000,-82.3750,5,97.74,0.53,15.59
10.658000,-77.8750,5,97.74,0.53,15.59
10.668000,-80.5000,5,97.74,0.53,15.59
10.678000,-76.1250,5,97.74,0.53,15.59
10.688000,-79.6250,5,97.74,0.53,15.59
10.698000,-74.3750,5,97.74,0.53,15.59
10.708000,-75.7500,5,97.74,0.53,15.59
10.718000,-72.8750,5,97.74,0.53,15.59
10.728000,-74.2500,5,97.74,0.53,15.59
10.738000,-71.8750,5,97.74,0.53,15.59
10.748000,-74.8750,5,97.74,0.53,15.59
10.758000,-73.0000,5,97.74,0.53,15.59
10.768000,-78.0000,5,97.74,0.53,15.59
10.778000,-77.3750,5,97.74,0.53,15.59
10.788000,-81.7500,5,97.74,0.53,15.59
10.798000,-79.8750,5,97.74,0.53,15.59
10.808000,-83.5000,5,97.74,0.53,15.59
10.818000,-80.5000,5,97.74,0.53,15.59
10.828000,-83.3750,5,97.74,0.53,15.59
10.838000,-81.6250,5,97.74,0.53,15.59
10.848000,-83.8750,5,97.74,0.53,15.59
10.858000,-81.0000,5,97.74,0.53,15.59
10.868000,-83.8750,5,97.74,0.53,15.59
10.878000,-81.2500,5,97.74,0.53,15.59
10.888000,-83.2500,5,97.74,0.53,15.59
10.898000,-81.1250,5,97.74,0.53,15.59
10.908000,-82.1250,5,97.74,0.53,15.59
10.918000,-81.0000,5,97.74,0.53,15.59
10.928000,-81.6250,5,97.74,0.53,15.59
10.938000,-80.5000,5,97.74,0.53,15.59
10.948000,-82.7500,5,97.74,0.53,15.59
10.958000,-80.8750,5,97.74,0.53,15.59
10.968000,-82.8750,5,97.74,0.53,15.59
10.978000,-81.0000,5,97.74,0.53,15.59
10.988000,-83.6250,5,97.74,0.53,15.59
10.998000,-81.6250,5,97.74,0.53,15.59
11.008000,-83.2500,5,97.74,0.53,15.59
11.018000,-81.1250,5,97.74,0.53,15.59
11.028000,-81.3750,5,97.74,0.53,15.59
11.038000,-80.6250,5,97.74,0.53,15.59
11.048000,-81.0000,5,97.74,0.53,15.59
11.058000,-80.6250,5,97.74,0.53,15.59
11.068000,-80.1250,5,97.74,0.53,15.59
11.078000,-79.0000,5,97.74,0.53,15.59
11.088000,-78.6250,5,97.74,0.53,15.59
11.098000,-78.5000,5,97.74,0.53,15.59
11.108000,-77.6250,5,97.74,0.53,15.59
11.118000,-78.8750,5,97.74,0.53,15.59
11.128000,-79.1250,5,97.74,0.53,15.59
11.138000,-80.5000,5,97.74,0.53,15.59
11.148000,-79.7500,5,97.74,0.53,15.59
11.158000,-80.0000,5,97.74,0.53,15.59
11.168000,-79.6250,5,97.74,0.53,15.59
11.178000,-79.7500,5,97.74,0.53,15.59
11.188000,-78.8750,5,97.74,0.53,15.59
11.198000,-80.0000,5,97.74,0.53,15.59
11.208000,-78.5000,5,97.74,0.53,15.59
11.218000,-75.5000,5,97.74,0.53,15.59
11.228000,-69.1250,5,97.74,0.53,15.59
11.238000,-68.7500,5,97.74,0.53,15.59
11.248000,-79.8750,5,97.74,0.53,15.59
11.258000,-94.3750,5,97.74,0.53,15.59
11.268000,-84.5000,5,97.74,0.53,15.59
11.278000,-75.8750,5,97.74,0.53,15.59
11.288000,-75.5000,5,97.74,0.53,15.59
11.298000,-75.8750,5,97.74,0.53,15.59
11.308000,-75.2500,5,97.74,0.53,15.59
11.318000,-75.0000,5,97.74,0.53,15.59
11.328000,-74.5000,5,97.74,0.53,15.59
11.338000,-74.1250,5,97.74,0.53,15.59
11.348000,-74.5000,5,97.74,0.53,15.59
11.358000,-73.1250,5,97.74,0.53,15.59
11.368000,-72.2500,5,97.74,0.53,15.59
11.378000,-71.3750,5,97.74,0.53,15.59
11.388000,-71.0000,5,97.74,0.53,15.59
11.398000,-70.1250,5,97.74,0.53,15.59
11.408000,-68.7500,5,97.74,0.53,15.59
11.418000,-68.6250,5,97.74,0.53,15.59
11.428000,-67.1250,5,97.74,0.53,15.59
11.438000,-67.1250,5,97.74,0.53,15.59
11.448000,-66.2500,5,97.74,0.53,15.59
11.458000,-67.8750,5,97.74,0.53,15.59
11.468000,-68.2500,5,97.74,0.53,15.59
11.478000,-71.7500,5,97.74,0.53,15.59
11.488000,-72.7500,5,97.74,0.53,15.59
11.498000,-75.2500,5,97.74,0.53,15.59
11.508000,-75.8750,5,97.74,0.53,15.59
11.518000,-78.8750,5,97.74,0.53,15.59
11.528000,-77.1250,5,97.74,0.53,15.59
11.538000,-79.8750,5,97.74,0.53,15.59
11.548000,-78.5000,5,97.74,0.53,15.59
11.558000,-80.3750,5,97.74,0.53,15.59
11.568000,-77.7500,5,97.74,0.53,15.59
11.578000,-80.1250,5,97.74,0.53,15.59
11.588000,-77.7500,5,97.74,0.53,15.59
11.598000,-80.1250,5,97.74,0.53,15.59
11.608000,-76.5000,5,97.74,0.53,15.59
11.618000,-79.8750,5,97.74,0.53,15.59
11.628000,-77.5000,5,97.74,0.53,15.59
11.638000,-80.0000,5,97.74,0.53,15.59
11.648000,-77.7500,5,97.74,0.53,15.59
11.658000,-81.8750,5,97.74,0.53,15.59
11.668000,-78.0000,5,97.74,0.53,15.59
11.678000,-82.2500,5,97.74,0.53,15.59
11.688000,-77.5000,5,97.74,0.53,15.59
11.698000,-82.2500,5,97.74,0.53,15.59
11.708000,-79.6250,5,97.74,0.53,15.59
11.718000,-82.3750,5,97.74,0.53,15.59
11.728000,-79.8750,5,97.74,0.53,15.59
11.738000,-81.8750,5,97.74,0.53,15.59
11.748000,-80.8750,5,97.74,0.53,15.59
11.758000,-81.6250,5,97.74,0.53,15.59
11.768000,-80.1250,5,97.74,0.53,15.59
11.778000,-83.1250,5,97.74,0.53,15.59
11.788000,-79.3750,5,97.74,0.53,15.59
11.798000,-81.1250,5,97.74,0.53,15.59
11.808000,-78.0000,5,97.74,0.53,15.59
11.818000,-81.7500,5,97.74,0.53,15.59
11.828000,-79.6250,5,97.74,0.53,15.59
11.838000,-81.2500,5,97.74,0.53,15.59
11.848000,-81.2500,5,97.74,0.53,15.59
11.858000,-83.0000,5,97.74,0.53,15.59
11.868000,-82.7500,5,97.74,0.53,15.59
11.878000,-84.6250,5,97.74,0.53,15.59
11.888000,-83.8750,5,97.74,0.53,15.59
11.898000,-84.8750,5,97.74,0.53,15.59
11.908000,-84.0000,5,97.74,0.53,15.59
11.918000,-85.1250,5,97.74,0.53,15.59
11.928000,-82.5000,5,97.74,0.53,15.59
11.938000,-80.5000,5,97.74,0.53,15.59
11.948000,-71.3750,5,97.74,0.53,15.59
11.958000,-77.2500,5,97.74,0.53,15.59
11.968000,-93.6250,5,97.74,0.53,15.59
11.978000,-100.7500,5,97.74,0.53,15.59
11.988000,-85.7500,5,97.74,0.53,15.59
11.998000,-83.3750,5,97.74,0.53,15.59
12.008000,-83.3750,5,97.74,0.53,15.59
12.018000,-84.0000,5,97.74,0.53,15.59
12.028000,-83.8750,5,97.74,0.53,15.59
12.038000,-84.1250,5,97.74,0.53,15.59
12.048000,-82.3750,5,97.74,0.53,15.59
12.058000,-84.0000,5,97.74,0.53,15.59
12.068000,-82.8750,5,97.74,0.53,15.59
12.078000,-83.5000,5,97.74,0.53,15.59
12.088000,-83.1250,5,97.74,0.53,15.59
12.098000,-84.3750,5,97.74,0.53,15.59
12.108000,-82.2500,5,97.74,0.53,15.59
12.118000,-82.5000,5,97.74,0.53,15.59
12.128000,-81.5000,5,97.74,0.53,15.59
12.138000,-80.3750,5,97.74,0.53,15.59
12.148000,-79.8750,5,97.74,0.53,15.59
12.158000,-79.6250,5,97.74,0.53,15.59
12.168000,-80.7500,5,97.74,0.53,15.59
12.178000,-81.7500,5,97.74,0.53,15.59
12.188000,-87.1250,5,97.74,0.53,15.59
12.198000,-89.5000,5,97.74,0.53,15.59
12.208000,-93.0000,5,97.74,0.53,15.59
12.218000,-97.5000,5,97.74,0.53,15.59
12.228000,-93.8750,5,97.74,0.53,15.59
12.238000,-94.1250,5,97.74,0.53,15.59
12.248000,-94.5000,5,97.74,0.53,15.59
12.258000,-94.7500,5,97.74,0.53,15.59
12.268000,-98.5000,5,97.74,0.53,15.59
12.278000,-98.0000,5,97.74,0.53,15.59
12.288000,-97.6250,5,97.74,0.53,15.59
12.298000,-95.2500,5,97.74,0.53,15.59
12.308000,-96.3750,5,97.74,0.53,15.59
12.318000,-99.5000,5,97.74,0.53,15.59
12.328000,-100.1250,5,97.74,0.53,15.59
12.338000,-102.0000,5,97.74,0.53,15.59
12.348000,-99.1250,5,97.74,0.53,15.59
12.358000,-102.8750,5,97.74,0.53,15.59
12.368000,-100.1250,5,97.74,0.53,15.59
12.378000,-103.3750,5,97.74,0.53,15.59
12.388000,-96.3750,5,97.74,0.53,15.59
12.398000,-95.6250,5,97.74,0.53,15.59
12.408000,-90.8750,5,97.74,0.53,15.59
12.418000,-99.0000,5,97.74,0.53,15.59
12.428000,-95.0000,5,97.74,0.53,15.59
12.438000,-93.0000,5,97.74,0.53,15.59
12.448000,-99.2500,5,97.74,0.53,15.59
12.458000,-102.5000,5,97.74,0.53,15.59
12.468000,-103.7500,5,97.74,0.53,15.59
12.478000,-106.5000,5,97.74,0.53,15.59
12.488000,-106.6250,5,97.74,0.53,15.59
12.498000,-102.7500,5,97.74,0.53,15.59
12.508000,-101.5000,5,97.74,0.53,15.59
12.518000,-104.6250,5,97.74,0.53,15.59
12.528000,-102.6250,5,97.74,0.53,15.59
12.538000,-104.0000,5,97.74,0.53,15.59
12.548000,-104.1250,5,97.74,0.53,15.59
12.558000,-104.2500,5,97.74,0.53,15.59
12.568000,-102.0000,5,97.74,0.53,15.59
12.578000,-98.0000,5,97.74,0.53,15.59
12.588000,-92.0000,5,97.74,0.53,15.59
12.598000,-99.2500,5,97.74,0.53,15.59
12.608000,-114.5000,5,97.74,0.53,15.59
12.618000,-116.0000,5,97.74,0.53,15.59
12.628000,-103.3750,5,97.74,0.53,15.59
12.638000,-102.6250,5,97.74,0.53,15.59
12.648000,-101.1250,5,97.74,0.53,15.59
12.658000,-103.0000,5,97.74,0.53,15.59
12.668000,-98.7500,5,97.74,0.53,15.59
12.678000,-94.3750,5,97.74,0.53,15.59
12.688000,-92.0000,5,97.74,0.53,15.59
12.698000,-95.8750,5,97.74,0.53,15.59
12.708000,-100.8750,5,97.74,0.53,15.59
12.718000,-101.5000,5,97.74,0.53,15.59
12.728000,-100.2500,5,97.74,0.53,15.59
12.738000,-100.1250,5,97.74,0.53,15.59
12.748000,-97.5000,5,97.74,0.53,15.59
12.758000,-97.5000,5,97.74,0.53,15.59
12.768000,-94.2500,5,97.74,0.53,15.59
12.778000,-94.7500,5,97.74,0.53,15.59
12.788000,-94.3750,5,97.74,0.53,15.59
12.798000,-96.7500,5,97.74,0.53,15.59
12.808000,-90.7500,5,97.74,0.53,15.59
12.818000,-86.5000,5,97.74,0.53,15.59
12.828000,-104.2500,5,97.74,0.53,15.59
12.838000,-88.0000,5,97.74,0.53,15.59
12.848000,-91.5000,5,97.74,0.53,15.59
12.858000,-90.3750,5,97.74,0.53,15.59
12.868000,-88.5000,5,97.74,0.53,15.59
12.878000,-86.5000,5,97.74,0.53,15.59
12.888000,-88.5000,5,97.74,0.53,15.59
12.898000,-83.0000,5,97.74,0.53,15.59
12.908000,-83.5000,5,97.74,0.53,15.59
12.918000,-83.0000,5,97.74,0.53,15.59
12.928000,-85.0000,5,97.74,0.53,15.59
12.938000,-86.1250,5,97.74,0.53,15.59
12.948000,-89.5000,5,97.74,0.53,15.59
12.958000,-91.1250,5,97.74,0.53,15.59
12.968000,-91.7500,5,97.74,0.53,15.59
12.978000,-92.5000,5,97.74,0.53,15.59
12.988000,-93.5000,5,97.74,0.53,15.59
12.998000,-93.3750,5,97.74,0.53,15.59
13.008000,-93.7500,5,97.74,0.53,15.59
13.018000,-93.2500,5,97.74,0.53,15.59
13.028000,-92.3750,5,97.74,0.53,15.59
13.038000,-93.3750,5,97.74,0.53,15.59
13.048000,-91.1250,5,97.74,0.53,15.59
13.058000,-90.6250,5,97.74,0.53,15.59
13.068000,-89.5000,5,97.74,0.53,15.59
13.078000,-91.2500,5,97.74,0.53,15.59
13.088000,-90.7500,5,97.74,0.53,15.59
13.098000,-88.6250,5,97.74,0.53,15.59
13.108000,-92.0000,5,97.74,0.53,15.59
13.118000,-80.0000,5,97.74,0.53,15.59
13.128000,-81.7500,5,97.74,0.53,15.59
13.138000,-108.1250,5,97.74,0.53,15.59
13.148000,-84.2500,5,97.74,0.53,15.59
13.158000,-88.2500,5,97.74,0.53,15.59
13.168000,-84.0000,5,97.74,0.53,15.59
13.178000,-85.8750,5,97.74,0.53,15.59
13.188000,-83.0000,5,97.74,0.53,15.59
13.198000,-83.0000,5,97.74,0.53,15.59
13.208000,-77.6250,5,97.74,0.53,15.59
13.218000,-78.0000,5,97.74,0.53,15.59
13.228000,-85.5000,5,97.74,0.53,15.59
13.238000,-85.1250,5,97.74,0.53,15.59
13.248000,-84.2500,5,97.74,0.53,15.59
13.258000,-84.3750,5,97.74,0.53,15.59
13.268000,-85.3750,5,97.74,0.53,15.59
13.278000,-85.8750,5,97.74,0.53,15.59
13.288000,-87.2500,5,97.74,0.53,15.59
13.298000,-84.7500,5,97.74,0.53,15.59
13.308000,-87.7500,5,97.74,0.53,15.59
13.318000,-84.5000,5,97.74,0.53,15.59
13.328000,-82.8750,5,97.74,0.53,15.59
13.338000,-82.7500,5,97.74,0.53,15.59
13.348000,-82.6250,5,97.74,0.53,15.59
13.358000,-76.6250,5,97.74,0.53,15.59
13.368000,-74.3750,5,97.74,0.53,15.59
13.378000,-96.6250,5,97.74,0.53,15.59
13.388000,-78.7500,5,97.74,0.53,15.59
13.398000,-82.6250,5,97.74,0.53,15.59
13.408000,-79.3750,5,97.74,0.53,15.59
13.418000,-78.1250,5,97.74,0.53,15.59
13.428000,-77.2500,5,97.74,0.53,15.59
13.438000,-72.0000,5,97.74,0.53,15.59
13.448000,-81.0000,5,97.74,0.53,15.59
13.458000,-80.8750,5,97.74,0.53,15.59
13.468000,-81.0000,5,97.74,0.53,15.59
13.478000,-81.5000,5,97.74,0.53,15.59
13.488000,-80.7500,5,97.74,0.53,15.59
13.498000,-80.3750,5,97.74,0.53,15.59
13.508000,-80.3750,5,97.74,0.53,15.59
13.518000,-80.3750,5,97.74,0.53,15.59
13.528000,-83.3750,5,97.74,0.53,15.59
13.538000,-80.6250,5,97.74,0.53,15.59
13.548000,-80.0000,5,97.74,0.53,15.59
13.558000,-81.0000,5,97.74,0.53,15.59
13.568000,-80.0000,5,97.74,0.53,15.59
13.578000,-82.1250,5,97.74,0.53,15.59
13.588000,-79.6250,5,97.74,0.53,15.59
13.598000,-68.2500,5,97.74,0.53,15.59
13.608000,-69.5000,5,97.74,0.53,15.59
13.618000,-86.0000,5,97.74,0.53,15.59
13.628000,-75.1250,5,97.74,0.53,15.59
13.638000,-77.8750,5,97.74,0.53,15.59
13.648000,-76.2500,5,97.74,0.53,15.59
13.658000,-75.1250,5,97.74,0.53,15.59
13.668000,-75.0000,5,97.74,0.53,15.59
13.678000,-71.3750,5,97.74,0.53,15.59
13.688000,-67.8750,5,97.74,0.53,15.59
13.698000,-73.5000,5,97.74,0.53,15.59
13.708000,-78.1250,5,97.74,0.53,15.59
13.718000,-82.0000,5,97.74,0.53,15.59
13.728000,-79.5000,5,97.74,0.53,15.59
13.738000,-80.5000,5,97.74,0.53,15.59
13.748000,-81.0000,5,97.74,0.53,15.59
13.758000,-81.2500,5,97.74,0.53,15.59
13.768000,-83.2500,5,97.74,0.53,15.59
13.778000,-81.2500,5,97.74,0.53,15.59
13.788000,-83.5000,5,97.74,0.53,15.59
13.798000,-81.1250,5,97.74,0.53,15.59
13.808000,-83.7500,5,97.74,0.53,15.59
13.818000,-81.1250,5,97.74,0.53,15.59
13.828000,-82.2500,5,97.74,0.53,15.59
13.838000,-81.5000,5,97.74,0.53,15.59
13.848000,-81.2500,5,97.74,0.53,15.59
13.858000,-80.7500,5,97.74,0.53,15.59
13.868000,-82.2500,5,97.74,0.53,15.59
13.878000,-79.1250,5,97.74,0.53,15.59
13.888000,-80.6250,5,97.74,0.53,15.59
13.898000,-81.3750,5,97.74,0.53,15.59
13.908000,-82.5000,5,97.74,0.53,15.59
13.918000,-81.8750,5,97.74,0.53,15.59
13.928000,-82.2500,5,97.74,0.53,15.59
13.938000,-82.2500,5,97.74,0.53,15.59
13.948000,-82.6250,5,97.74,0.53,15.59
13.958000,-81.6250,5,97.74,0.53,15.59
13.968000,-84.0000,5,97.74,0.53,15.59
13.978000,-75.7500,5,97.74,0.53,15.59
13.988000,-68.1250,5,97.74,0.53,15.59
13.998000,-71.8750,5,97.74,0.53,15.59
14.008000,-90.0000,5,97.74,0.53,15.59
14.018000,-94.2500,5,97.74,0.53,15.59
14.028000,-80.2500,5,97.74,0.53,15.59
14.038000,-77.6250,5,97.74,0.53,15.59
14.048000,-78.8750,5,97.74,0.53,15.59
14.058000,-79.5000,5,97.74,0.53,15.59
14.068000,-79.2500,5,97.74,0.53,15.59
14.078000,-80.3750,5,97.74,0.53,15.59
14.088000,-78.6250,5,97.74,0.53,15.59
14.098000,-79.5000,5,97.74,0.53,15.59
14.108000,-77.7500,5,97.74,0.53,15.59
14.118000,-78.7500,5,97.74,0.53,15.59
14.128000,-77.2500,5,97.74,0.53,15.59
14.138000,-77.6250,5,97.74,0.53,15.59
14.148000,-76.0000,5,97.74,0.53,15.59
14.158000,-71.7500,5,97.74,0.53,15.59
14.168000,-70.7500,5,97.74,0.53,15.59
14.178000,-77.2500,5,97.74,0.53,15.59
14.188000,-76.1250,5,97.74,0.53,15.59
14.198000,-79.7500,5,97.74,0.53,15.59
14.208000,-80.1250,5,97.74,0.53,15.59
14.218000,-82.8750,5,97.74,0.53,15.59
14.228000,-82.3750,5,97.74,0.53,15.59
14.238000,-84.1250,5,97.74,0.53,15.59
14.248000,-82.7500,5,97.74,0.53,15.59
14.258000,-83.3750,5,97.74,0.53,15.59
14.268000,-83.2500,5,97.74,0.53,15.59
14.278000,-83.7500,5,97.74,0.53,15.59
14.288000,-82.6250,5,97.74,0.53,15.59
14.298000,-83.3750,5,97.74,0.53,15.59
14.308000,-81.8750,5,97.74,0.53,15.59
14.318000,-82.7500,5,97.74,0.53,15.59
14.328000,-82.5000,5,97.74,0.53,15.59
14.338000,-82.5000,5,97.74,0.53,15.59
14.348000,-82.5000,5,97.74,0.53,15.59
14.358000,-82.7500,5,97.74,0.53,15.59
14.368000,-81.7500,5,97.74,0.53,15.59
14.378000,-82.3750,7,94.34,-0.07,8.20
14.388000,-81.3750,7,94.34,-0.07,8.20
14.398000,-82.5000,7,94.34,-0.07,8.20
14.408000,-81.8750,7,94.34,-0.07,8.20
14.418000,-82.3750,7,94.34,-0.07,8.20
14.428000,-82.7500,7,94.34,-0.07,8.20
14.438000,-83.2500,7,94.34,-0.07,8.20
14.448000,-83.0000,7,94.34,-0.07,8.20
14.458000,-83.3750,7,94.34,-0.07,8.20
14.468000,-83.0000,7,94.34,-0.07,8.20
14.478000,-83.3750,7,94.34,-0.07,8.20
14.488000,-83.5000,7,94.34,-0.07,8.20
14.498000,-84.2500,7,94.34,-0.07,8.20
14.508000,-84.5000,7,94.34,-0.07,8.20
14.518000,-84.3750,7,94.34,-0.07,8.20
14.528000,-84.6250,7,94.34,-0.07,8.20
14.538000,-84.0000,7,94.34,-0.07,8.20
14.548000,-84.0000,7,94.34,-0.07,8.20
14.558000,-83.3750,7,94.34,-0.07,8.20
14.568000,-82.8750,7,94.34,-0.07,8.20
14.578000,-82.5000,7,94.34,-0.07,8.20
14.588000,-82.8750,7,94.34,-0.07,8.20
14.598000,-83.1250,7,94.34,-0.07,8.20
14.608000,-84.0000,7,94.34,-0.07,8.20
14.618000,-83.7500,7,94.34,-0.07,8.20
14.628000,-86.0000,7,94.34,-0.07,8.20
14.638000,-85.0000,7,94.34,-0.07,8.20
14.648000,-86.5000,7,94.34,-0.07,8.20
14.658000,-84.8750,7,94.34,-0.07,8.20
14.668000,-86.2500,7,94.34,-0.07,8.20
14.678000,-84.5000,7,94.34,-0.07,8.20
14.688000,-85.5000,7,94.34,-0.07,8.20
14.698000,-84.0000,7,94.34,-0.07,8.20
14.708000,-80.2500,7,94.34,-0.07,8.20
14.718000,-71.7500,7,94.34,-0.07,8.20
14.728000,-75.8750,7,94.34,-0.07,8.20
14.738000,-89.2500,7,94.34,-0.07,8.20
14.748000,-99.7500,7,94.34,-0.07,8.20
14.758000,-84.3750,7,94.34,-0.07,8.20
14.768000,-81.5000,7,94.34,-0.07,8.20
14.778000,-81.2500,7,94.34,-0.07,8.20
14.788000,-82.2500,7,94.34,-0.07,8.20
14.798000,-81.1250,7,94.34,-0.07,8.20
14.808000,-81.3750,7,94.34,-0.07,8.20
14.818000,-80.2500,7,94.34,-0.07,8.20
14.828000,-81.0000,7,94.34,-0.07,8.20
14.838000,-79.2500,7,94.34,-0.07,8.20
14.848000,-80.3750,7,94.34,-0.07,8.20
14.858000,-78.3750,7,94.34,-0.07,8.20
14.868000,-78.7500,7,94.34,-0.07,8.20
14.878000,-76.5000,7,94.34,-0.07,8.20
14.888000,-76.8750,7,94.34,-0.07,8.20
14.898000,-74.2500,7,94.34,-0.07,8.20
14.908000,-75.1250,7,94.34,-0.07,8.20
14.918000,-72.3750,7,94.34,-0.07,8.20
14.928000,-74.0000,7,94.34,-0.07,8.20
14.938000,-73.0000,7,94.34,-0.07,8.20
14.948000,-76.8750,7,94.34,-0.07,8.20
14.958000,-76.2500,7,94.34,-0.07,8.20
14.968000,-81.2500,7,94.34,-0.07,8.20
14.978000,-81.3750,7,94.34,-0.07,8.20
14.988000,-85.2500,7,94.34,-0.07,8.20
14.998000,-83.1250,7,94.34,-0.07,8.20
15.008000,-86.8750,7,94.34,-0.07,8.20
15.018000,-83.8750,7,94.34,-0.07,8.20
15.028000,-86.2500,7,94.34,-0.07,8.20
15.038000,-83.6250,7,94.34,-0.07,8.20
15.048000,-85.7500,7,94.34,-0.07,8.20
15.058000,-83.3750,7,94.34,-0.07,8.20
15.068000,-86.8750,7,94.34,-0.07,8.20
15.078000,-83.8750,7,94.34,-0.07,8.20
15.088000,-86.1250,7,94.34,-0.07,8.20
15.098000,-83.2500,7,94.34,-0.07,8.20
15.108000,-86.3750,7,94.34,-0.07,8.20
15.118000,-82.2500,7,94.34,-0.07,8.20
15.128000,-85.2500,7,94.34,-0.07,8.20
15.138000,-82.1250,7,94.34,-0.07,8.20
15.148000,-85.2500,7,94.34,-0.07,8.20
15.158000,-81.7500,7,94.34,-0.07,8.20
15.168000,-83.6250,7,94.34,-0.07,8.20
15.178000,-81.0000,7,94.34,-0.07,8.20
15.188000,-83.3750,7,94.34,-0.07,8.20
15.198000,-81.2500,7,94.34,-0.07,8.20
15.208000,-83.6250,7,94.34,-0.07,8.20
15.218000,-82.1250,7,94.34,-0.07,8.20
15.228000,-83.3750,7,94.34,-0.07,8.20
15.238000,-81.6250,7,94.34,-0.07,8.20
15.248000,-82.8750,7,94.34,-0.07,8.20
15.258000,-81.1250,7,94.34,-0.07,8.20
15.268000,-82.8750,7,94.34,-0.07,8.20
15.278000,-80.5000,7,94.34,-0.07,8.20
15.288000,-80.8750,7,94.34,-0.07,8.20
15.298000,-79.5000,7,94.34,-0.07,8.20
15.308000,-79.8750,7,94.34,-0.07,8.20
15.318000,-78.2500,7,94.34,-0.07,8.20
15.328000,-78.2500,7,94.34,-0.07,8.20
15.338000,-78.0000,7,94.34,-0.07,8.20
15.348000,-78.8750,7,94.34,-0.07,8.20
15.358000,-79.5000,7,94.34,-0.07,8.20
15.368000,-79.7500,7,94.34,-0.07,8.20
15.378000,-80.5000,7,94.34,-0.07,8.20
15.388000,-80.1250,7,94.34,-0.07,8.20
15.398000,-80.8750,7,94.34,-0.07,8.20
15.408000,-79.8750,7,94.34,-0.07,8.20
15.418000,-79.3750,7,94.34,-0.07,8.20
15.428000,-79.0000,7,94.34,-0.07,8.20
15.438000,-79.2500,7,94.34,-0.07,8.20
15.448000,-76.8750,7,94.34,-0.07,8.20
15.458000,-71.8750,7,94.34,-0.07,8.20
15.468000,-65.5000,7,94.34,-0.07,8.20
15.478000,-70.5000,7,94.34,-0.07,8.20
15.488000,-89.0000,7,94.34,-0.07,8.20
15.498000,-88.2500,7,94.34,-0.07,8.20
15.508000,-74.3750,7,94.34,-0.07,8.20
15.518000,-73.3750,7,94.34,-0.07,8.20
15.528000,-74.2500,7,94.34,-0.07,8.20
15.538000,-74.0000,7,94.34,-0.07,8.20
15.548000,-72.6250,7,94.34,-0.07,8.20
15.558000,-73.0000,7,94.34,-0.07,8.20
15.568000,-72.1250,7,94.34,-0.07,8.20
15.578000,-72.1250,7,94.34,-0.07,8.20
15.588000,-72.5000,7,94.34,-0.07,8.20
15.598000,-71.0000,7,94.34,-0.07,8.20
15.608000,-70.6250,7,94.34,-0.07,8.20
15.618000,-68.3750,7,94.34,-0.07,8.20
15.628000,-67.7500,7,94.34,-0.07,8.20
15.638000,-65.7500,7,94.34,-0.07,8.20
15.648000,-64.8750,7,94.34,-0.07,8.20
15.658000,-63.8750,7,94.34,-0.07,8.20
15.668000,-63.1250,7,94.34,-0.07,8.20
15.678000,-62.8750,7,94.34,-0.07,8.20
15.688000,-63.2500,7,94.34,-0.07,8.20
15.698000,-64.5000,7,94.34,-0.07,8.20
15.708000,-65.3750,7,94.34,-0.07,8.20
15.718000,-68.2500,7,94.34,-0.07,8.20
15.728000,-69.3750,7,94.34,-0.07,8.20
15.738000,-71.5000,7,94.34,-0.07,8.20
15.748000,-71.5000,7,94.34,-0.07,8.20
15.758000,-73.2500,7,94.34,-0.07,8.20
15.768000,-72.2500,7,94.34,-0.07,8.20
15.778000,-73.6250,7,94.34,-0.07,8.20
15.788000,-72.0000,7,94.34,-0.07,8.20
15.798000,-73.5000,7,94.34,-0.07,8.20
15.808000,-71.5000,7,94.34,-0.07,8.20
15.818000,-72.6250,7,94.34,-0.07,8.20
15.828000,-70.8750,7,94.34,-0.07,8.20
15.838000,-72.2500,7,94.34,-0.07,8.20
15.848000,-69.8750,7,94.34,-0.07,8.20
15.858000,-72.2500,7,94.34,-0.07,8.20
15.868000,-69.3750,7,94.34,-0.07,8.20
15.878000,-71.7500,7,94.34,-0.07,8.20
15.888000,-69.1250,7,94.34,-0.07,8.20
15.898000,-72.2500,7,94.34,-0.07,8.20
15.908000,-69.5000,7,94.34,-0.07,8.20
15.918000,-71.8750,7,94.34,-0.07,8.20
15.928000,-69.2500,7,94.34,-0.07,8.20
15.938000,-72.0000,7,94.34,-0.07,8.20
15.948000,-69.7500,7,94.34,-0.07,8.20
15.958000,-71.8750,7,94.34,-0.07,8.20
15.968000,-70.1250,7,94.34,-0.07,8.20
15.978000,-72.5000,7,94.34,-0.07,8.20
15.988000,-69.7500,7,94.34,-0.07,8.20
15.998000,-72.5000,7,94.34,-0.07,8.20
16.008000,-70.7500,7,94.34,-0.07,8.20
16.018000,-73.0000,7,94.34,-0.07,8.20
16.028000,-71.3750,7,94.34,-0.07,8.20
16.038000,-73.3750,7,94.34,-0.07,8.20
16.048000,-70.5000,7,94.34,-0.07,8.20
16.058000,-72.5000,7,94.34,-0.07,8.20
16.068000,-70.2500,7,94.34,-0.07,8.20
16.078000,-72.0000,7,94.34,-0.07,8.20
16.088000,-69.6250,7,94.34,-0.07,8.20
16.098000,-71.0000,7,94.34,-0.07,8.20
16.108000,-70.6250,7,94.34,-0.07,8.20
16.118000,-71.7500,7,94.34,-0.07,8.20
16.128000,-72.7500,7,94.34,-0.07,8.20
16.138000,-74.8750,7,94.34,-0.07,8.20
16.148000,-63.2500,7,94.34,-0.07,8.20
16.158000,-73.6250,7,94.34,-0.07,8.20
16.168000,-73.7500,7,94.34,-0.07,8.20
16.178000,-69.1250,7,94.34,-0.07,8.20
16.188000,-69.2500,7,94.34,-0.07,8.20
16.198000,-69.7500,7,94.34,-0.07,8.20
16.208000,-76.2500,7,94.34,-0.07,8.20
16.218000,-80.0000,7,94.34,-0.07,8.20
16.228000,-81.5000,7,94.34,-0.07,8.20
16.238000,-83.1250,7,94.34,-0.07,8.20
16.248000,-82.6250,7,94.34,-0.07,8.20
16.258000,-86.0000,7,94.34,-0.07,8.20
16.268000,-83.3750,7,94.34,-0.07,8.20
16.278000,-86.6250,7,94.34,-0.07,8.20
16.288000,-84.1250,7,94.34,-0.07,8.20
16.298000,-86.7500,7,94.34,-0.07,8.20
16.308000,-84.0000,7,94.34,-0.07,8.20
16.318000,-86.2500,7,94.34,-0.07,8.20
16.328000,-85.0000,7,94.34,-0.07,8.20
16.338000,-89.8750,7,94.34,-0.07,8.20
16.348000,-89.1250,7,94.34,-0.07,8.20
16.358000,-87.3750,7,94.34,-0.07,8.20
16.368000,-91.1250,7,94.34,-0.07,8.20
16.378000,-90.0000,7,94.34,-0.07,8.20
16.388000,-89.0000,7,94.34,-0.07,8.20
16.398000,-86.8750,7,94.34,-0.07,8.20
16.408000,-86.5000,7,94.34,-0.07,8.20
16.418000,-83.1250,7,94.34,-0.07,8.20
16.428000,-85.7500,7,94.34,-0.07,8.20
16.438000,-87.8750,7,94.34,-0.07,8.20
16.448000,-93.0000,7,94.34,-0.07,8.20
16.458000,-96.7500,7,94.34,-0.07,8.20
16.468000,-95.1250,7,94.34,-0.07,8.20
16.478000,-95.0000,7,94.34,-0.07,8.20
16.488000,-96.3750,7,94.34,-0.07,8.20
16.498000,-95.3750,7,94.34,-0.07,8.20
16.508000,-96.6250,7,94.34,-0.07,8.20
16.518000,-95.0000,7,94.34,-0.07,8.20
16.528000,-96.1250,7,94.34,-0.07,8.20
16.538000,-95.0000,7,94.34,-0.07,8.20
16.548000,-95.8750,7,94.34,-0.07,8.20
16.558000,-95.3750,7,94.34,-0.07,8.20
16.568000,-94.5000,7,94.34,-0.07,8.20
16.578000,-97.2500,7,94.34,-0.07,8.20
16.588000,-96.0000,7,94.34,-0.07,8.20
16.598000,-96.8750,7,94.34,-0.07,8.20
16.608000,-94.0000,7,94.34,-0.07,8.20
16.618000,-96.0000,7,94.34,-0.07,8.20
16.628000,-93.7500,7,94.34,-0.07,8.20
16.638000,-90.0000,7,94.34,-0.07,8.20
16.648000,-86.8750,7,94.34,-0.07,8.20
16.658000,-85.0000,7,94.34,-0.07,8.20
16.668000,-85.3750,7,94.34,-0.07,8.20
16.678000,-87.1250,7,94.34,-0.07,8.20
16.688000,-90.7500,7,94.34,-0.07,8.20
16.698000,-92.3750,7,94.34,-0.07,8.20
16.708000,-94.6250,7,94.34,-0.07,8.20
16.718000,-94.7500,7,94.34,-0.07,8.20
16.728000,-95.1250,7,94.34,-0.07,8.20
16.738000,-94.0000,7,94.34,-0.07,8.20
16.748000,-94.3750,7,94.34,-0.07,8.20
16.758000,-94.0000,7,94.34,-0.07,8.20
16.768000,-92.2500,7,94.34,-0.07,8.20
16.778000,-92.2500,7,94.34,-0.07,8.20
16.788000,-88.1250,7,94.34,-0.07,8.20
16.798000,-87.0000,7,94.34,-0.07,8.20
16.808000,-85.8750,7,94.34,-0.07,8.20
16.818000,-86.0000,7,94.34,-0.07,8.20
16.828000,-84.8750,7,94.34,-0.07,8.20
16.838000,-83.8750,7,94.34,-0.07,8.20
16.848000,-85.0000,7,94.34,-0.07,8.20
16.858000,-84.8750,7,94.34,-0.07,8.20
16.868000,-83.1250,7,94.34,-0.07,8.20
16.878000,-86.6250,7,94.34,-0.07,8.20
16.888000,-90.6250,7,94.34,-0.07,8.20
16.898000,-93.7500,7,94.34,-0.07,8.20
16.908000,-92.6250,7,94.34,-0.07,8.20
16.918000,-92.2500,7,94.34,-0.07,8.20
16.928000,-88.5000,7,94.34,-0.07,8.20
16.938000,-90.1250,7,94.34,-0.07,8.20
16.948000,-87.1250,7,94.34,-0.07,8.20
16.958000,-80.2500,7,94.34,-0.07,8.20
16.968000,-83.8750,7,94.34,-0.07,8.20
16.978000,-85.7500,7,94.34,-0.07,8.20
16.988000,-83.8750,7,94.34,-0.07,8.20
16.998000,-83.5000,7,94.34,-0.07,8.20
17.008000,-81.1250,7,94.34,-0.07,8.20
17.018000,-81.6250,7,94.34,-0.07,8.20
17.028000,-78.3750,7,94.34,-0.07,8.20
17.038000,-81.0000,7,94.34,-0.07,8.20
17.048000,-78.8750,7,94.34,-0.07,8.20
17.058000,-88.5000,7,94.34,-0.07,8.20
17.068000,-88.6250,7,94.34,-0.07,8.20
17.078000,-87.3750,7,94.34,-0.07,8.20
17.088000,-88.8750,7,94.34,-0.07,8.20
17.098000,-86.5000,7,94.34,-0.07,8.20
17.108000,-88.0000,7,94.34,-0.07,8.20
17.118000,-87.8750,7,94.34,-0.07,8.20
17.128000,-87.7500,7,94.34,-0.07,8.20
17.138000,-84.2500,7,94.34,-0.07,8.20
17.148000,-83.5000,7,94.34,-0.07,8.20
17.158000,-83.8750,7,94.34,-0.07,8.20
17.168000,-86.1250,7,94.34,-0.07,8.20
17.178000,-88.8750,7,94.34,-0.07,8.20
17.188000,-88.2500,7,94.34,-0.07,8.20
17.198000,-87.3750,7,94.34,-0.07,8.20
17.208000,-88.8750,7,94.34,-0.07,8.20
17.218000,-103.0000,7,94.34,-0.07,8.20
17.228000,-87.5000,7,94.34,-0.07,8.20
17.238000,-84.7500,7,94.34,-0.07,8.20
17.248000,-83.6250,7,94.34,-0.07,8.20
17.258000,-85.3750,7,94.34,-0.07,8.20
17.268000,-81.8750,7,94.34,-0.07,8.20
17.278000,-81.3750,7,94.34,-0.07,8.20
17.288000,-79.1250,7,94.34,-0.07,8.20
17.298000,-90.5000,7,94.34,-0.07,8.20
17.308000,-89.6250,7,94.34,-0.07,8.20
17.318000,-88.8750,7,94.34,-0.07,8.20
17.328000,-88.5000,7,94.34,-0.07,8.20
17.338000,-89.5000,7,94.34,-0.07,8.20
17.348000,-87.7500,7,94.34,-0.07,8.20
17.358000,-89.1250,7,94.34,-0.07,8.20
17.368000,-88.6250,7,94.34,-0.07,8.20
17.378000,-90.3750,7,94.34,-0.07,8.20
17.388000,-87.1250,7,94.34,-0.07,8.20
17.398000,-90.2500,7,94.34,-0.07,8.20
17.408000,-89.8750,7,94.34,-0.07,8.20
17.418000,-90.2500,7,94.34,-0.07,8.20
17.428000,-92.6250,7,94.34,-0.07,8.20
17.438000,-89.7500,7,94.34,-0.07,8.20
17.448000,-89.0000,7,94.34,-0.07,8.20
17.458000,-86.5000,7,94.34,-0.07,8.20
17.468000,-89.6250,7,94.34,-0.07,8.20
17.478000,-87.0000,7,94.34,-0.07,8.20
17.488000,-86.8750,7,94.34,-0.07,8.20
17.498000,-77.5000,7,94.34,-0.07,8.20
17.508000,-82.0000,7,94.34,-0.07,8.20
17.518000,-87.3750,7,94.34,-0.07,8.20
17.528000,-88.3750,7,94.34,-0.07,8.20
17.538000,-88.2500,7,94.34,-0.07,8.20
17.548000,-89.7500,7,94.34,-0.07,8.20
17.558000,-88.2500,7,94.34,-0.07,8.20
17.568000,-89.2500,7,94.34,-0.07,8.20
17.578000,-88.3750,7,94.34,-0.07,8.20
17.588000,-87.8750,7,94.34,-0.07,8.20
17.598000,-90.1250,7,94.34,-0.07,8.20
17.608000,-89.7500,7,94.34,-0.07,8.20
17.618000,-85.1250,7,94.34,-0.07,8.20
17.628000,-85.5000,7,94.34,-0.07,8.20
17.638000,-86.7500,7,94.34,-0.07,8.20
17.648000,-90.5000,7,94.34,-0.07,8.20
17.658000,-87.0000,7,94.34,-0.07,8.20
17.668000,-88.1250,7,94.34,-0.07,8.20
17.678000,-80.8750,7,94.34,-0.07,8.20
17.688000,-78.1250,7,94.34,-0.07,8.20
17.698000,-95.5000,7,94.34,-0.07,8.20
17.708000,-92.6250,7,94.34,-0.07,8.20
17.718000,-80.7500,7,94.34,-0.07,8.20
17.728000,-80.0000,7,94.34,-0.07,8.20
17.738000,-75.6250,7,94.34,-0.07,8.20
17.748000,-74.2500,7,94.34,-0.07,8.20
17.758000,-68.3750,7,94.34,-0.07,8.20
17.768000,-75.7500,7,94.34,-0.07,8.20
17.778000,-76.5000,7,94.34,-0.07,8.20
17.788000,-73.7500,7,94.34,-0.07,8.20
17.798000,-74.7500,7,94.34,-0.07,8.20
17.808000,-74.8750,7,94.34,-0.07,8.20
17.818000,-71.3750,7,94.34,-0.07,8.20
17.828000,-71.1250,7,94.34,-0.07,8.20
17.838000,-72.1250,7,94.34,-0.07,8.20
17.848000,-71.7500,7,94.34,-0.07,8.20
17.858000,-72.2500,7,94.34,-0.07,8.20
17.868000,-72.8750,7,94.34,-0.07,8.20
17.878000,-73.8750,7,94.34,-0.07,8.20
17.888000,-73.3750,7,94.34,-0.07,8.20
17.898000,-73.8750,7,94.34,-0.07,8.20
17.908000,-74.3750,7,94.34,-0.07,8.20
17.918000,-73.8750,7,94.34,-0.07,8.20
17.928000,-73.3750,7,94.34,-0.07,8.20
17.938000,-73.8750,7,94.34,-0.07,8.20
17.948000,-75.8750,7,94.34,-0.07,8.20
17.958000,-74.2500,7,94.34,-0.07,8.20
17.968000,-76.8750,7,94.34,-0.07,8.20
17.978000,-76.1250,7,94.34,-0.07,8.20
17.988000,-78.1250,7,94.34,-0.07,8.20
17.998000,-75.7500,7,94.34,-0.07,8.20
18.008000,-79.0000,7,94.34,-0.07,8.20
18.018000,-77.2500,7,94.34,-0.07,8.20
18.028000,-76.6250,7,94.34,-0.07,8.20
18.038000,-77.3750,7,94.34,-0.07,8.20
18.048000,-72.5000,7,94.34,-0.07,8.20
18.058000,-66.8750,7,94.34,-0.07,8.20
18.068000,-68.3750,7,94.34,-0.07,8.20
18.078000,-84.2500,7,94.34,-0.07,8.20
18.088000,-91.2500,7,94.34,-0.07,8.20
18.098000,-79.0000,7,94.34,-0.07,8.20
18.108000,-75.0000,7,94.34,-0.07,8.20
18.118000,-78.7500,7,94.34,-0.07,8.20
18.128000,-76.2500,7,94.34,-0.07,8.20
18.138000,-78.1250,7,94.34,-0.07,8.20
18.148000,-74.5000,7,94.34,-0.07,8.20
18.158000,-77.2500,7,94.34,-0.07,8.20
18.168000,-74.6250,7,94.34,-0.07,8.20
18.178000,-76.1250,7,94.34,-0.07,8.20
18.188000,-73.5000,7,94.34,-0.07,8.20
18.198000,-75.3750,7,94.34,-0.07,8.20
18.208000,-73.3750,7,94.34,-0.07,8.20
18.218000,-73.1250,7,94.34,-0.07,8.20
18.228000,-71.6250,7,94.34,-0.07,8.20
18.238000,-81.2500,7,94.34,-0.07,8.20
18.248000,-80.5000,7,94.34,-0.07,8.20
18.258000,-83.2500,7,94.34,-0.07,8.20
18.268000,-81.8750,7,94.34,-0.07,8.20
18.278000,-84.8750,7,94.34,-0.07,8.20
18.288000,-83.0000,7,94.34,-0.07,8.20
18.298000,-85.1250,7,94.34,-0.07,8.20
18.308000,-82.7500,7,94.34,-0.07,8.20
18.318000,-84.7500,7,94.34,-0.07,8.20
18.328000,-82.3750,7,94.34,-0.07,8.20
18.338000,-85.1250,7,94.34,-0.07,8.20
18.348000,-82.6250,7,94.34,-0.07,8.20
18.358000,-83.7500,7,94.34,-0.07,8.20
18.368000,-81.8750,7,94.34,-0.07,8.20
18.378000,-83.2500,7,94.34,-0.07,8.20
18.388000,-82.3750,7,94.34,-0.07,8.20
18.398000,-83.7500,9,88.35,-0.08,10.64
18.408000,-82.1250,9,88.35,-0.08,10.64
18.418000,-84.2500,9,88.35,-0.08,10.64
18.428000,-82.6250,9,88.35,-0.08,10.64
18.438000,-84.7500,9,88.35,-0.08,10.64
18.448000,-83.0000,9,88.35,-0.08,10.64
18.458000,-85.2500,9,88.35,-0.08,10.64
18.468000,-83.7500,9,88.35,-0.08,10.64
18.478000,-85.5000,9,88.35,-0.08,10.64
18.488000,-84.1250,9,88.35,-0.08,10.64
18.498000,-85.6250,9,88.35,-0.08,10.64
18.508000,-84.0000,9,88.35,-0.08,10.64
18.518000,-84.6250,9,88.35,-0.08,10.64
18.528000,-84.3750,9,88.35,-0.08,10.64
18.538000,-85.0000,9,88.35,-0.08,10.64
18.548000,-84.0000,9,88.35,-0.08,10.64
18.558000,-85.2500,9,88.35,-0.08,10.64
18.568000,-85.5000,9,88.35,-0.08,10.64
18.578000,-86.1250,9,88.35,-0.08,10.64
18.588000,-87.0000,9,88.35,-0.08,10.64
18.598000,-87.1250,9,88.35,-0.08,10.64
18.608000,-88.5000,9,88.35,-0.08,10.64
18.618000,-87.1250,9,88.35,-0.08,10.64
18.628000,-88.1250,9,88.35,-0.08,10.64
18.638000,-87.2500,9,88.35,-0.08,10.64
18.648000,-88.8750,9,88.35,-0.08,10.64
18.658000,-84.0000,9,88.35,-0.08,10.64
18.668000,-78.3750,9,88.35,-0.08,10.64
18.678000,-76.7500,9,88.35,-0.08,10.64
18.688000,-86.8750,9,88.35,-0.08,10.64
18.698000,-104.0000,9,88.35,-0.08,10.64
18.708000,-97.0000,9,88.35,-0.08,10.64
18.718000,-85.8750,9,88.35,-0.08,10.64
18.728000,-88.0000,9,88.35,-0.08,10.64
18.738000,-87.6250,9,88.35,-0.08,10.64
18.748000,-88.6250,9,88.35,-0.08,10.64
18.758000,-87.1250,9,88.35,-0.08,10.64
18.768000,-88.1250,9,88.35,-0.08,10.64
18.778000,-88.3750,9,88.35,-0.08,10.64
18.788000,-88.2500,9,88.35,-0.08,10.64
18.798000,-88.5000,9,88.35,-0.08,10.64
18.808000,-87.6250,9,88.35,-0.08,10.64
18.818000,-87.1250,9,88.35,-0.08,10.64
18.828000,-86.7500,9,88.35,-0.08,10.64
18.838000,-86.0000,9,88.35,-0.08,10.64
18.848000,-85.1250,9,88.35,-0.08,10.64
18.858000,-83.8750,9,88.35,-0.08,10.64
18.868000,-83.8750,9,88.35,-0.08,10.64
18.878000,-83.2500,9,88.35,-0.08,10.64
18.888000,-83.3750,9,88.35,-0.08,10.64
18.898000,-85.0000,9,88.35,-0.08,10.64
18.908000,-86.3750,9,88.35,-0.08,10.64
18.918000,-88.8750,9,88.35,-0.08,10.64
18.928000,-93.1250,9,88.35,-0.08,10.64
18.938000,-92.6250,9,88.35,-0.08,10.64
18.948000,-94.7500,9,88.35,-0.08,10.64
18.958000,-93.8750,9,88.35,-0.08,10.64
18.968000,-96.1250,9,88.35,-0.08,10.64
18.978000,-96.2500,9,88.35,-0.08,10.64
18.988000,-96.3750,9,88.35,-0.08,10.64
18.998000,-94.3750,9,88.35,-0.08,10.64
19.008000,-96.5000,9,88.35,-0.08,10.64
19.018000,-94.5000,9,88.35,-0.08,10.64
19.028000,-96.6250,9,88.35,-0.08,10.64
19.038000,-95.0000,9,88.35,-0.08,10.64
19.048000,-97.1250,9,88.35,-0.08,10.64
19.058000,-94.3750,9,88.35,-0.08,10.64
19.068000,-96.7500,9,88.35,-0.08,10.64
19.078000,-94.7500,9,88.35,-0.08,10.64
19.088000,-97.6250,9,88.35,-0.08,10.64
19.098000,-94.1250,9,88.35,-0.08,10.64
19.108000,-97.6250,9,88.35,-0.08,10.64
19.118000,-94.5000,9,88.35,-0.08,10.64
19.128000,-97.3750,9,88.35,-0.08,10.64
19.138000,-93.7500,9,88.35,-0.08,10.64
19.148000,-98.2500,9,88.35,-0.08,10.64
19.158000,-95.2500,9,88.35,-0.08,10.64
19.168000,-99.1250,9,88.35,-0.08,10.64
19.178000,-96.3750,9,88.35,-0.08,10.64
19.188000,-99.1250,9,88.35,-0.08,10.64
19.198000,-96.3750,9,88.35,-0.08,10.64
19.208000,-99.3750,9,88.35,-0.08,10.64
19.218000,-96.8750,9,88.35,-0.08,10.64
19.228000,-98.7500,9,88.35,-0.08,10.64
19.238000,-95.1250,9,88.35,-0.08,10.64
19.248000,-96.7500,9,88.35,-0.08,10.64
19.258000,-95.0000,9,88.35,-0.08,10.64
19.268000,-98.7500,9,88.35,-0.08,10.64
19.278000,-96.6250,9,88.35,-0.08,10.64
19.288000,-98.2500,9,88.35,-0.08,10.64
19.298000,-97.2500,9,88.35,-0.08,10.64
19.308000,-99.2500,9,88.35,-0.08,10.64
19.318000,-97.8750,9,88.35,-0.08,10.64
19.328000,-99.7500,9,88.35,-0.08,10.64
19.338000,-98.5000,9,88.35,-0.08,10.64
19.348000,-98.6250,9,88.35,-0.08,10.64
19.358000,-98.8750,9,88.35,-0.08,10.64
19.368000,-98.0000,9,88.35,-0.08,10.64
19.378000,-91.5000,9,88.35,-0.08,10.64
19.388000,-84.3750,9,88.35,-0.08,10.64
19.398000,-87.0000,9,88.35,-0.08,10.64
19.408000,-105.5000,9,88.35,-0.08,10.64
19.418000,-111.3750,9,88.35,-0.08,10.64
19.428000,-97.8750,9,88.35,-0.08,10.64
19.438000,-93.2500,9,88.35,-0.08,10.64
19.448000,-95.7500,9,88.35,-0.08,10.64
19.458000,-94.2500,9,88.35,-0.08,10.64
19.468000,-94.7500,9,88.35,-0.08,10.64
19.478000,-94.2500,9,88.35,-0.08,10.64
19.488000,-94.5000,9,88.35,-0.08,10.64
19.498000,-93.0000,9,88.35,-0.08,10.64
19.508000,-93.3750,9,88.35,-0.08,10.64
19.518000,-92.3750,9,88.35,-0.08,10.64
19.528000,-92.7500,9,88.35,-0.08,10.64
19.538000,-91.1250,9,88.35,-0.08,10.64
19.548000,-90.8750,9,88.35,-0.08,10.64
19.558000,-88.5000,9,88.35,-0.08,10.64
19.568000,-87.8750,9,88.35,-0.08,10.64
19.578000,-86.1250,9,88.35,-0.08,10.64
19.588000,-86.2500,9,88.35,-0.08,10.64
19.598000,-85.2500,9,88.35,-0.08,10.64
19.608000,-85.7500,9,88.35,-0.08,10.64
19.618000,-87.8750,9,88.35,-0.08,10.64
19.628000,-89.3750,9,88.35,-0.08,10.64
19.638000,-91.7500,9,88.35,-0.08,10.64
19.648000,-93.2500,9,88.35,-0.08,10.64
19.658000,-94.8750,9,88.35,-0.08,10.64
19.668000,-95.3750,9,88.35,-0.08,10.64
19.678000,-95.8750,9,88.35,-0.08,10.64
19.688000,-95.5000,9,88.35,-0.08,10.64
19.698000,-95.7500,9,88.35,-0.08,10.64
19.708000,-95.3750,9,88.35,-0.08,10.64
19.718000,-96.5000,9,88.35,-0.08,10.64
19.728000,-94.5000,9,88.35,-0.08,10.64
19.738000,-95.7500,9,88.35,-0.08,10.64
19.748000,-94.1250,9,88.35,-0.08,10.64
19.758000,-96.3750,9,88.35,-0.08,10.64
19.768000,-93.8750,9,88.35,-0.08,10.64
19.778000,-95.6250,9,88.35,-0.08,10.64
19.788000,-94.1250,9,88.35,-0.08,10.64
19.798000,-94.8750,9,88.35,-0.08,10.64
19.808000,-93.0000,9,88.35,-0.08,10.64
19.818000,-94.1250,9,88.35,-0.08,10.64
19.828000,-92.5000,9,88.35,-0.08,10.64
19.838000,-93.2500,9,88.35,-0.08,10.64
19.848000,-92.0000,9,88.35,-0.08,10.64
19.858000,-93.1250,9,88.35,-0.08,10.64
19.868000,-92.0000,9,88.35,-0.08,10.64
19.878000,-92.7500,9,88.35,-0.08,10.64
19.888000,-93.1250,9,88.35,-0.08,10.64
19.898000,-93.5000,9,88.35,-0.08,10.64
19.908000,-90.6250,9,88.35,-0.08,10.64
19.918000,-92.3750,9,88.35,-0.08,10.64
19.928000,-90.1250,9,88.35,-0.08,10.64
19.938000,-91.1250,9,88.35,-0.08,10.64
19.948000,-89.7500,9,88.35,-0.08,10.64
19.958000,-90.7500,9,88.35,-0.08,10.64
19.968000,-89.3750,9,88.35,-0.08,10.64
19.978000,-90.5000,9,88.35,-0.08,10.64
19.988000,-90.2500,9,88.35,-0.08,10.64
19.998000,-92.0000,9,88.35,-0.08,10.64
20.008000,-90.3750,9,88.35,-0.08,10.64
20.018000,-92.5000,9,88.35,-0.08,10.64
20.028000,-90.0000,9,88.35,-0.08,10.64
20.038000,-91.0000,9,88.35,-0.08,10.64
20.048000,-90.1250,9,88.35,-0.08,10.64
20.058000,-92.1250,9,88.35,-0.08,10.64
20.068000,-85.7500,9,88.35,-0.08,10.64
20.078000,-82.6250,9,88.35,-0.08,10.64
20.088000,-78.0000,9,88.35,-0.08,10.64
20.098000,-88.1250,9,88.35,-0.08,10.64
20.108000,-99.6250,9,88.35,-0.08,10.64
20.118000,-97.8750,9,88.35,-0.08,10.64
20.128000,-84.0000,9,88.35,-0.08,10.64
20.138000,-86.8750,9,88.35,-0.08,10.64
20.148000,-85.0000,9,88.35,-0.08,10.64
20.158000,-86.0000,9,88.35,-0.08,10.64
20.168000,-82.2500,9,88.35,-0.08,10.64
20.178000,-78.6250,9,88.35,-0.08,10.64
20.188000,-78.0000,9,88.35,-0.08,10.64
20.198000,-82.1250,9,88.35,-0.08,10.64
20.208000,-88.3750,9,88.35,-0.08,10.64
20.218000,-86.8750,9,88.35,-0.08,10.64
20.228000,-86.8750,9,88.35,-0.08,10.64
20.238000,-87.3750,9,88.35,-0.08,10.64
20.248000,-88.3750,9,88.35,-0.08,10.64
20.258000,-87.7500,9,88.35,-0.08,10.64
20.268000,-88.2500,9,88.35,-0.08,10.64
20.278000,-86.8750,9,88.35,-0.08,10.64
20.288000,-88.2500,9,88.35,-0.08,10.64
20.298000,-87.2500,9,88.35,-0.08,10.64
20.308000,-87.2500,9,88.35,-0.08,10.64
20.318000,-86.2500,9,88.35,-0.08,10.64
20.328000,-86.3750,9,88.35,-0.08,10.64
20.338000,-86.1250,9,88.35,-0.08,10.64
20.348000,-86.6250,9,88.35,-0.08,10.64
20.358000,-87.7500,9,88.35,-0.08,10.64
20.368000,-89.2500,9,88.35,-0.08,10.64
20.378000,-76.3750,9,88.35,-0.08,10.64
20.388000,-100.3750,9,88.35,-0.08,10.64
20.398000,-83.1250,9,88.35,-0.08,10.64
20.408000,-81.1250,9,88.35,-0.08,10.64
20.418000,-78.0000,9,88.35,-0.08,10.64
20.428000,-87.5000,9,88.35,-0.08,10.64
20.438000,-85.1250,9,88.35,-0.08,10.64
20.448000,-87.0000,9,88.35,-0.08,10.64
20.458000,-86.6250,9,88.35,-0.08,10.64
20.468000,-86.6250,9,88.35,-0.08,10.64
20.478000,-84.1250,9,88.35,-0.08,10.64
20.488000,-87.0000,9,88.35,-0.08,10.64
20.498000,-85.6250,9,88.35,-0.08,10.64
20.508000,-86.3750,9,88.35,-0.08,10.64
20.518000,-86.2500,9,88.35,-0.08,10.64
20.528000,-85.8750,9,88.35,-0.08,10.64
20.538000,-84.1250,9,88.35,-0.08,10.64
20.548000,-85.3750,9,88.35,-0.08,10.64
20.558000,-85.3750,9,88.35,-0.08,10.64
20.568000,-84.7500,9,88.35,-0.08,10.64
20.578000,-84.7500,9,88.35,-0.08,10.64
20.588000,-85.6250,9,88.35,-0.08,10.64
20.598000,-86.3750,9,88.35,-0.08,10.64
20.608000,-87.8750,9,88.35,-0.08,10.64
20.618000,-87.0000,9,88.35,-0.08,10.64
20.628000,-86.3750,9,88.35,-0.08,10.64
20.638000,-75.5000,9,88.35,-0.08,10.64
20.648000,-87.5000,9,88.35,-0.08,10.64
20.658000,-84.0000,9,88.35,-0.08,10.64
20.668000,-76.5000,9,88.35,-0.08,10.64
20.678000,-84.2500,9,88.35,-0.08,10.64
20.688000,-86.5000,9,88.35,-0.08,10.64
20.698000,-86.7500,9,88.35,-0.08,10.64
20.708000,-86.6250,9,88.35,-0.08,10.64
20.718000,-86.7500,9,88.35,-0.08,10.64
20.728000,-86.3750,9,88.35,-0.08,10.64
20.738000,-86.7500,9,88.35,-0.08,10.64
20.748000,-87.6250,9,88.35,-0.08,10.64
20.758000,-88.0000,9,88.35,-0.08,10.64
20.768000,-88.1250,9,88.35,-0.08,10.64
20.778000,-85.2500,9,88.35,-0.08,10.64
20.788000,-84.6250,9,88.35,-0.08,10.64
20.798000,-87.3750,9,88.35,-0.08,10.64
20.808000,-101.2500,9,88.35,-0.08,10.64
20.818000,-81.2500,9,88.35,-0.08,10.64
20.828000,-83.2500,9,88.35,-0.08,10.64
20.838000,-88.6250,9,88.35,-0.08,10.64
20.848000,-89.3750,9,88.35,-0.08,10.64
20.858000,-89.8750,9,88.35,-0.08,10.64
20.868000,-90.8750,9,88.35,-0.08,10.64
20.878000,-89.0000,9,88.35,-0.08,10.64
20.888000,-88.7500,9,88.35,-0.08,10.64
20.898000,-90.0000,9,88.35,-0.08,10.64
20.908000,-89.3750,9,88.35,-0.08,10.64
20.918000,-88.8750,9,88.35,-0.08,10.64
20.928000,-91.5000,9,88.35,-0.08,10.64
20.938000,-90.6250,9,88.35,-0.08,10.64
20.948000,-89.1250,9,88.35,-0.08,10.64
20.958000,-88.2500,9,88.35,-0.08,10.64
20.968000,-88.8750,9,88.35,-0.08,10.64
20.978000,-85.7500,9,88.35,-0.08,10.64
20.988000,-86.6250,9,88.35,-0.08,10.64
20.998000,-89.5000,9,88.35,-0.08,10.64
21.008000,-100.8750,9,88.35,-0.08,10.64
21.018000,-90.3750,9,88.35,-0.08,10.64
21.028000,-86.3750,9,88.35,-0.08,10.64
21.038000,-85.5000,9,88.35,-0.08,10.64
21.048000,-87.5000,9,88.35,-0.08,10.64
21.058000,-85.1250,9,88.35,-0.08,10.64
21.068000,-86.8750,9,88.35,-0.08,10.64
21.078000,-83.7500,9,88.35,-0.08,10.64
21.088000,-79.3750,9,88.35,-0.08,10.64
21.098000,-76.1250,9,88.35,-0.08,10.64
21.108000,-76.6250,9,88.35,-0.08,10.64
21.118000,-79.0000,9,88.35,-0.08,10.64
21.128000,-79.3750,9,88.35,-0.08,10.64
21.138000,-84.0000,9,88.35,-0.08,10.64
21.148000,-88.5000,9,88.35,-0.08,10.64
21.158000,-86.7500,9,88.35,-0.08,10.64
21.168000,-87.3750,9,88.35,-0.08,10.64
21.178000,-85.8750,9,88.35,-0.08,10.64
21.188000,-86.1250,9,88.35,-0.08,10.64
21.198000,-88.1250,9,88.35,-0.08,10.64
21.208000,-88.2500,9,88.35,-0.08,10.64
21.218000,-88.5000,9,88.35,-0.08,10.64
21.228000,-86.8750,9,88.35,-0.08,10.64
21.238000,-88.3750,9,88.35,-0.08,10.64
21.248000,-83.3750,9,88.35,-0.08,10.64
21.258000,-84.5000,9,88.35,-0.08,10.64
21.268000,-86.3750,9,88.35,-0.08,10.64
21.278000,-86.0000,9,88.35,-0.08,10.64
21.288000,-87.8750,9,88.35,-0.08,10.64
21.298000,-87.1250,9,88.35,-0.08,10.64
21.308000,-85.2500,9,88.35,-0.08,10.64
21.318000,-101.6250,9,88.35,-0.08,10.64
21.328000,-82.8750,9,88.35,-0.08,10.64
21.338000,-82.2500,9,88.35,-0.08,10.64
21.348000,-81.1250,9,88.35,-0.08,10.64
21.358000,-80.3750,9,88.35,-0.08,10.64
21.368000,-78.0000,9,88.35,-0.08,10.64
21.378000,-77.0000,9,88.35,-0.08,10.64
21.388000,-77.7500,9,88.35,-0.08,10.64
21.398000,-84.5000,9,88.35,-0.08,10.64
21.408000,-89.8750,9,88.35,-0.08,10.64
21.418000,-87.3750,9,88.35,-0.08,10.64
21.428000,-87.8750,9,88.35,-0.08,10.64
21.438000,-90.2500,9,88.35,-0.08,10.64
21.448000,-86.5000,9,88.35,-0.08,10.64
21.458000,-88.1250,9,88.35,-0.08,10.64
21.468000,-88.2500,9,88.35,-0.08,10.64
21.478000,-87.1250,9,88.35,-0.08,10.64
21.488000,-89.5000,9,88.35,-0.08,10.64
21.498000,-86.8750,9,88.35,-0.08,10.64
21.508000,-86.6250,9,88.35,-0.08,10.64
21.518000,-85.7500,9,88.35,-0.08,10.64
21.528000,-89.2500,9,88.35,-0.08,10.64
21.538000,-85.6250,9,88.35,-0.08,10.64
21.548000,-86.0000,9,88.35,-0.08,10.64
21.558000,-86.3750,9,88.35,-0.08,10.64
21.568000,-85.5000,9,88.35,-0.08,10.64
21.578000,-85.6250,9,88.35,-0.08,10.64
21.588000,-85.7500,9,88.35,-0.08,10.64
21.598000,-84.6250,9,88.35,-0.08,10.64
21.608000,-85.2500,9,88.35,-0.08,10.64
21.618000,-80.0000,9,88.35,-0.08,10.64
21.628000,-81.1250,9,88.35,-0.08,10.64
21.638000,-89.7500,9,88.35,-0.08,10.64
21.648000,-89.6250,9,88.35,-0.08,10.64
21.658000,-89.0000,9,88.35,-0.08,10.64
21.668000,-87.3750,9,88.35,-0.08,10.64
21.678000,-87.6250,9,88.35,-0.08,10.64
21.688000,-88.6250,9,88.35,-0.08,10.64
21.698000,-88.1250,9,88.35,-0.08,10.64
21.708000,-88.6250,9,88.35,-0.08,10.64
21.718000,-89.6250,9,88.35,-0.08,10.64
21.728000,-89.0000,9,88.35,-0.08,10.64
21.738000,-92.2500,9,88.35,-0.08,10.64
21.748000,-88.5000,9,88.35,-0.08,10.64
21.758000,-90.1250,9,88.35,-0.08,10.64
21.768000,-89.7500,9,88.35,-0.08,10.64
21.778000,-89.1250,9,88.35,-0.08,10.64
21.788000,-82.5000,9,88.35,-0.08,10.64
21.798000,-85.5000,9,88.35,-0.08,10.64
21.808000,-83.6250,9,88.35,-0.08,10.64
21.818000,-83.2500,9,88.35,-0.08,10.64
21.828000,-83.7500,9,88.35,-0.08,10.64
21.838000,-79.3750,9,88.35,-0.08,10.64
21.848000,-81.2500,9,88.35,-0.08,10.64
21.858000,-82.1250,9,88.35,-0.08,10.64
21.868000,-86.7500,9,88.35,-0.08,10.64
21.878000,-88.6250,9,88.35,-0.08,10.64
21.888000,-88.5000,9,88.35,-0.08,10.64
21.898000,-89.0000,9,88.35,-0.08,10.64
21.908000,-88.7500,9,88.35,-0.08,10.64
21.918000,-89.0000,9,88.35,-0.08,10.64
21.928000,-89.6250,9,88.35,-0.08,10.64
21.938000,-88.1250,9,88.35,-0.08,10.64
21.948000,-89.1250,9,88.35,-0.08,10.64
21.958000,-87.6250,9,88.35,-0.08,10.64
21.968000,-88.7500,9,88.35,-0.08,10.64
21.978000,-87.0000,9,88.35,-0.08,10.64
21.988000,-88.5000,9,88.35,-0.08,10.64
21.998000,-87.0000,9,88.35,-0.08,10.64
22.008000,-86.8750,9,88.35,-0.08,10.64
22.018000,-86.5000,9,88.35,-0.08,10.64
22.028000,-86.7500,9,88.35,-0.08,10.64
22.038000,-86.7500,9,88.35,-0.08,10.64
22.048000,-87.1250,9,88.35,-0.08,10.64
22.058000,-86.3750,9,88.35,-0.08,10.64
22.068000,-88.8750,9,88.35,-0.08,10.64
22.078000,-87.5000,9,88.35,-0.08,10.64
22.088000,-89.2500,9,88.35,-0.08,10.64
22.098000,-87.8750,9,88.35,-0.08,10.64
22.108000,-89.1250,9,88.35,-0.08,10.64
22.118000,-87.0000,9,88.35,-0.08,10.64
22.128000,-90.3750,9,88.35,-0.08,10.64
22.138000,-86.8750,9,88.35,-0.08,10.64
22.148000,-87.1250,9,88.35,-0.08,10.64
22.158000,-86.2500,9,88.35,-0.08,10.64
22.168000,-85.7500,9,88.35,-0.08,10.64
22.178000,-85.8750,9,88.35,-0.08,10.64
22.188000,-85.5000,9,88.35,-0.08,10.64
22.198000,-86.8750,9,88.35,-0.08,10.64
22.208000,-87.3750,9,88.35,-0.08,10.64
22.218000,-88.2500,9,88.35,-0.08,10.64
22.228000,-88.1250,9,88.35,-0.08,10.64
22.238000,-87.7500,9,88.35,-0.08,10.64
22.248000,-87.5000,9,88.35,-0.08,10.64
22.258000,-88.0000,9,88.35,-0.08,10.64
22.268000,-88.2500,9,88.35,-0.08,10.64
22.278000,-77.3750,9,88.35,-0.08,10.64
22.288000,-90.8750,9,88.35,-0.08,10.64
22.298000,-104.3750,9,88.35,-0.08,10.64
22.308000,-83.8750,9,88.35,-0.08,10.64
22.318000,-84.6250,9,88.35,-0.08,10.64
22.328000,-83.6250,9,88.35,-0.08,10.64
22.338000,-84.3750,9,88.35,-0.08,10.64
22.348000,-82.2500,9,88.35,-0.08,10.64
22.358000,-83.3750,9,88.35,-0.08,10.64
22.368000,-82.3750,9,88.35,-0.08,10.64
22.378000,-82.6250,9,88.35,-0.08,10.64
22.388000,-81.3750,9,88.35,-0.08,10.64
22.398000,-81.8750,9,88.35,-0.08,10.64
22.408000,-80.6250,9,88.35,-0.08,10.64
22.418000,-79.0000,9,88.35,-0.08,10.64
22.428000,-78.7500,9,88.35,-0.08,10.64
22.438000,-77.1250,9,88.35,-0.08,10.64
22.448000,-76.8750,9,88.35,-0.08,10.64
22.458000,-75.0000,9,88.35,-0.08,10.64
22.468000,-75.3750,9,88.35,-0.08,10.64
22.478000,-74.2500,9,88.35,-0.08,10.64
22.488000,-75.5000,9,88.35,-0.08,10.64
22.498000,-76.1250,9,88.35,-0.08,10.64
22.508000,-79.3750,9,88.35,-0.08,10.64
22.518000,-81.1250,9,88.35,-0.08,10.64
22.528000,-83.0000,11,89.37,-1.89,10.64
22.538000,-83.3750,11,89.37,-1.89,10.64
22.548000,-85.1250,11,89.37,-1.89,10.64
22.558000,-86.2500,11,89.37,-1.89,10.64
22.568000,-85.6250,11,89.37,-1.89,10.64
22.578000,-86.5000,11,89.37,-1.89,10.64
22.588000,-86.3750,11,89.37,-1.89,10.64
22.598000,-86.1250,11,89.37,-1.89,10.64
22.608000,-86.5000,11,89.37,-1.89,10.64
22.618000,-85.8750,11,89.37,-1.89,10.64
22.628000,-86.1250,11,89.37,-1.89,10.64
22.638000,-86.1250,11,89.37,-1.89,10.64
22.648000,-85.7500,11,89.37,-1.89,10.64
22.658000,-86.1250,11,89.37,-1.89,10.64
22.668000,-85.8750,11,89.37,-1.89,10.64
22.678000,-85.3750,11,89.37,-1.89,10.64
22.688000,-85.5000,11,89.37,-1.89,10.64
22.698000,-85.6250,11,89.37,-1.89,10.64
22.708000,-85.5000,11,89.37,-1.89,10.64
22.718000,-86.1250,11,89.37,-1.89,10.64
22.728000,-86.7500,11,89.37,-1.89,10.64
22.738000,-86.1250,11,89.37,-1.89,10.64
22.748000,-86.8750,11,89.37,-1.89,10.64
22.758000,-86.3750,11,89.37,-1.89,10.64
22.768000,-87.2500,11,89.37,-1.89,10.64
22.778000,-85.3750,11,89.37,-1.89,10.64
22.788000,-87.7500,11,89.37,-1.89,10.64
22.798000,-85.3750,11,89.37,-1.89,10.64
22.808000,-87.2500,11,89.37,-1.89,10.64
22.818000,-85.7500,11,89.37,-1.89,10.64
22.828000,-88.6250,11,89.37,-1.89,10.64
22.838000,-85.1250,11,89.37,-1.89,10.64
22.848000,-86.6250,11,89.37,-1.89,10.64
22.858000,-84.6250,11,89.37,-1.89,10.64
22.868000,-86.7500,11,89.37,-1.89,10.64
22.878000,-84.8750,11,89.37,-1.89,10.64
22.888000,-88.0000,11,89.37,-1.89,10.64
22.898000,-85.2500,11,89.37,-1.89,10.64
22.908000,-89.0000,11,89.37,-1.89,10.64
22.918000,-85.8750,11,89.37,-1.89,10.64
22.928000,-88.5000,11,89.37,-1.89,10.64
22.938000,-85.8750,11,89.37,-1.89,10.64
22.948000,-88.2500,11,89.37,-1.89,10.64
22.958000,-85.2500,11,89.37,-1.89,10.64
22.968000,-88.5000,11,89.37,-1.89,10.64
22.978000,-84.6250,11,89.37,-1.89,10.64
22.988000,-82.2500,11,89.37,-1.89,10.64
22.998000,-73.0000,11,89.37,-1.89,10.64
23.008000,-77.8750,11,89.37,-1.89,10.64
23.018000,-91.2500,11,89.37,-1.89,10.64
23.028000,-101.1250,11,89.37,-1.89,10.64
23.038000,-86.7500,11,89.37,-1.89,10.64
23.048000,-82.7500,11,89.37,-1.89,10.64
23.058000,-82.3750,11,89.37,-1.89,10.64
23.068000,-83.6250,11,89.37,-1.89,10.64
23.078000,-82.1250,11,89.37,-1.89,10.64
23.088000,-82.8750,11,89.37,-1.89,10.64
23.098000,-81.5000,11,89.37,-1.89,10.64
23.108000,-82.5000,11,89.37,-1.89,10.64
23.118000,-80.6250,11,89.37,-1.89,10.64
23.128000,-81.8750,11,89.37,-1.89,10.64
23.138000,-79.7500,11,89.37,-1.89,10.64
23.148000,-79.7500,11,89.37,-1.89,10.64
23.158000,-78.6250,11,89.37,-1.89,10.64
23.168000,-78.0000,11,89.37,-1.89,10.64
23.178000,-76.7500,11,89.37,-1.89,10.64
23.188000,-76.5000,11,89.37,-1.89,10.64
23.198000,-74.3750,11,89.37,-1.89,10.64
23.208000,-75.2500,11,89.37,-1.89,10.64
23.218000,-74.7500,11,89.37,-1.89,10.64
23.228000,-76.6250,11,89.37,-1.89,10.64
23.238000,-78.0000,11,89.37,-1.89,10.64
23.248000,-81.6250,11,89.37,-1.89,10.64
23.258000,-82.6250,11,89.37,-1.89,10.64
23.268000,-84.7500,11,89.37,-1.89,10.64
23.278000,-84.5000,11,89.37,-1.89,10.64
23.288000,-86.0000,11,89.37,-1.89,10.64
23.298000,-85.6250,11,89.37,-1.89,10.64
23.308000,-86.2500,11,89.37,-1.89,10.64
23.318000,-85.6250,11,89.37,-1.89,10.64
23.328000,-86.0000,11,89.37,-1.89,10.64
23.338000,-85.6250,11,89.37,-1.89,10.64
23.348000,-85.5000,11,89.37,-1.89,10.64
23.358000,-85.5000,11,89.37,-1.89,10.64
23.368000,-84.7500,11,89.37,-1.89,10.64
23.378000,-84.3750,11,89.37,-1.89,10.64
23.388000,-84.3750,11,89.37,-1.89,10.64
23.398000,-86.3750,11,89.37,-1.89,10.64
23.408000,-85.5000,11,89.37,-1.89,10.64
23.418000,-86.0000,11,89.37,-1.89,10.64
23.428000,-85.2500,11,89.37,-1.89,10.64
23.438000,-86.1250,11,89.37,-1.89,10.64
23.448000,-85.8750,11,89.37,-1.89,10.64
23.458000,-86.6250,11,89.37,-1.89,10.64
23.468000,-85.8750,11,89.37,-1.89,10.64
23.478000,-86.1250,11,89.37,-1.89,10.64
23.488000,-85.1250,11,89.37,-1.89,10.64
23.498000,-86.1250,11,89.37,-1.89,10.64
23.508000,-85.1250,11,89.37,-1.89,10.64
23.518000,-86.5000,11,89.37,-1.89,10.64
23.528000,-85.8750,11,89.37,-1.89,10.64
23.538000,-87.3750,11,89.37,-1.89,10.64
23.548000,-86.1250,11,89.37,-1.89,10.64
23.558000,-88.0000,11,89.37,-1.89,10.64
23.568000,-87.2500,11,89.37,-1.89,10.64
23.578000,-87.6250,11,89.37,-1.89,10.64
23.588000,-86.7500,11,89.37,-1.89,10.64
23.598000,-86.6250,11,89.37,-1.89,10.64
23.608000,-85.7500,11,89.37,-1.89,10.64
23.618000,-86.2500,11,89.37,-1.89,10.64
23.628000,-86.0000,11,89.37,-1.89,10.64
23.638000,-87.8750,11,89.37,-1.89,10.64
23.648000,-87.3750,11,89.37,-1.89,10.64
23.658000,-88.7500,11,89.37,-1.89,10.64
23.668000,-88.0000,11,89.37,-1.89,10.64
23.678000,-89.1250,11,89.37,-1.89,10.64
23.688000,-89.0000,11,89.37,-1.89,10.64
23.698000,-88.8750,11,89.37,-1.89,10.64
23.708000,-88.8750,11,89.37,-1.89,10.64
23.718000,-89.5000,11,89.37,-1.89,10.64
23.728000,-88.1250,11,89.37,-1.89,10.64
23.738000,-83.8750,11,89.37,-1.89,10.64
23.748000,-73.2500,11,89.37,-1.89,10.64
23.758000,-78.3750,11,89.37,-1.89,10.64
23.768000,-92.1250,11,89.37,-1.89,10.64
23.778000,-104.8750,11,89.37,-1.89,10.64
23.788000,-90.0000,11,89.37,-1.89,10.64
23.798000,-84.7500,11,89.37,-1.89,10.64
23.808000,-84.1250,11,89.37,-1.89,10.64
23.818000,-87.2500,11,89.37,-1.89,10.64
23.828000,-84.3750,11,89.37,-1.89,10.64
23.838000,-86.7500,11,89.37,-1.89,10.64
23.848000,-83.8750,11,89.37,-1.89,10.64
23.858000,-85.8750,11,89.37,-1.89,10.64
23.868000,-82.0000,11,89.37,-1.89,10.64
23.878000,-84.5000,11,89.37,-1.89,10.64
23.888000,-81.0000,11,89.37,-1.89,10.64
23.898000,-82.8750,11,89.37,-1.89,10.64
23.908000,-79.1250,11,89.37,-1.89,10.64
23.918000,-80.3750,11,89.37,-1.89,10.64
23.928000,-76.5000,11,89.37,-1.89,10.64
23.938000,-77.7500,11,89.37,-1.89,10.64
23.948000,-74.1250,11,89.37,-1.89,10.64
23.958000,-77.2500,11,89.37,-1.89,10.64
23.968000,-74.5000,11,89.37,-1.89,10.64
23.978000,-77.8750,11,89.37,-1.89,10.64
23.988000,-77.0000,11,89.37,-1.89,10.64
23.998000,-82.1250,11,89.37,-1.89,10.64
24.008000,-81.6250,11,89.37,-1.89,10.64
24.018000,-84.8750,11,89.37,-1.89,10.64
24.028000,-84.7500,11,89.37,-1.89,10.64
24.038000,-86.3750,11,89.37,-1.89,10.64
24.048000,-85.7500,11,89.37,-1.89,10.64
24.058000,-86.7500,11,89.37,-1.89,10.64
24.068000,-86.5000,11,89.37,-1.89,10.64
24.078000,-87.0000,11,89.37,-1.89,10.64
24.088000,-86.2500,11,89.37,-1.89,10.64
24.098000,-87.3750,11,89.37,-1.89,10.64
24.108000,-85.0000,11,89.37,-1.89,10.64
24.118000,-86.1250,11,89.37,-1.89,10.64
24.128000,-85.6250,11,89.37,-1.89,10.64
24.138000,-85.5000,11,89.37,-1.89,10.64
24.148000,-85.5000,11,89.37,-1.89,10.64
24.158000,-85.6250,11,89.37,-1.89,10.64
24.168000,-84.8750,11,89.37,-1.89,10.64
24.178000,-85.2500,11,89.37,-1.89,10.64
24.188000,-85.7500,11,89.37,-1.89,10.64
24.198000,-85.7500,11,89.37,-1.89,10.64
24.208000,-85.8750,11,89.37,-1.89,10.64
24.218000,-86.6250,11,89.37,-1.89,10.64
24.228000,-86.6250,11,89.37,-1.89,10.64
24.238000,-87.7500,11,89.37,-1.89,10.64
24.248000,-86.5000,11,89.37,-1.89,10.64
24.258000,-85.7500,11,89.37,-1.89,10.64
24.268000,-84.5000,11,89.37,-1.89,10.64
24.278000,-85.3750,11,89.37,-1.89,10.64
24.288000,-97.7500,11,89.37,-1.89,10.64
24.298000,-81.2500,11,89.37,-1.89,10.64
24.308000,-82.8750,11,89.37,-1.89,10.64
24.318000,-82.5000,11,89.37,-1.89,10.64
24.328000,-82.0000,11,89.37,-1.89,10.64
24.338000,-81.0000,11,89.37,-1.89,10.64
24.348000,-80.5000,11,89.37,-1.89,10.64
24.358000,-78.8750,11,89.37,-1.89,10.64
24.368000,-77.0000,11,89.37,-1.89,10.64
24.378000,-76.1250,11,89.37,-1.89,10.64
24.388000,-74.2500,11,89.37,-1.89,10.64
24.398000,-74.8750,11,89.37,-1.89,10.64
24.408000,-75.6250,11,89.37,-1.89,10.64
24.418000,-76.1250,11,89.37,-1.89,10.64
24.428000,-78.6250,11,89.37,-1.89,10.64
24.438000,-81.8750,11,89.37,-1.89,10.64
24.448000,-87.1250,11,89.37,-1.89,10.64
24.458000,-88.3750,11,89.37,-1.89,10.64
24.468000,-86.2500,11,89.37,-1.89,10.64
24.478000,-88.6250,11,89.37,-1.89,10.64
24.488000,-88.2500,11,89.37,-1.89,10.64
24.498000,-87.2500,11,89.37,-1.89,10.64
24.508000,-85.1250,11,89.37,-1.89,10.64
24.518000,-77.6250,11,89.37,-1.89,10.64
24.528000,-94.8750,11,89.37,-1.89,10.64
24.538000,-81.7500,11,89.37,-1.89,10.64
24.548000,-79.8750,11,89.37,-1.89,10.64
24.558000,-80.8750,11,89.37,-1.89,10.64
24.568000,-77.3750,11,89.37,-1.89,10.64
24.578000,-79.0000,11,89.37,-1.89,10.64
24.588000,-75.8750,11,89.37,-1.89,10.64
24.598000,-73.8750,11,89.37,-1.89,10.64
24.608000,-72.3750,11,89.37,-1.89,10.64
24.618000,-71.0000,11,89.37,-1.89,10.64
24.628000,-70.5000,11,89.37,-1.89,10.64
24.638000,-69.7500,11,89.37,-1.89,10.64
24.648000,-70.7500,11,89.37,-1.89,10.64
24.658000,-72.1250,11,89.37,-1.89,10.64
24.668000,-74.2500,11,89.37,-1.89,10.64
24.678000,-75.6250,11,89.37,-1.89,10.64
24.688000,-77.2500,11,89.37,-1.89,10.64
24.698000,-76.7500,11,89.37,-1.89,10.64
24.708000,-76.1250,11,89.37,-1.89,10.64
24.718000,-76.0000,11,89.37,-1.89,10.64
24.728000,-71.7500,11,89.37,-1.89,10.64
24.738000,-72.1250,11,89.37,-1.89,10.64
24.748000,-72.5000,11,89.37,-1.89,10.64
24.758000,-74.2500,11,89.37,-1.89,10.64
24.768000,-74.3750,11,89.37,-1.89,10.64
24.778000,-73.3750,11,89.37,-1.89,10.64
24.788000,-74.3750,11,89.37,-1.89,10.64
24.798000,-74.7500,11,89.37,-1.89,10.64
24.808000,-73.8750,11,89.37,-1.89,10.64
24.818000,-73.8750,11,89.37,-1.89,10.64
24.828000,-71.5000,11,89.37,-1.89,10.64
24.838000,-73.1250,11,89.37,-1.89,10.64
24.848000,-71.7500,11,89.37,-1.89,10.64
24.858000,-70.5000,11,89.37,-1.89,10.64
24.868000,-69.1250,11,89.37,-1.89,10.64
24.878000,-67.6250,11,89.37,-1.89,10.64
24.888000,-68.6250,11,89.37,-1.89,10.64
24.898000,-77.3750,11,89.37,-1.89,10.64
24.908000,-77.7500,11,89.37,-1.89,10.64
24.918000,-81.1250,11,89.37,-1.89,10.64
24.928000,-82.6250,11,89.37,-1.89,10.64
24.938000,-82.0000,11,89.37,-1.89,10.64
24.948000,-82.2500,11,89.37,-1.89,10.64
24.958000,-82.1250,11,89.37,-1.89,10.64
24.968000,-82.6250,11,89.37,-1.89,10.64
24.978000,-82.3750,11,89.37,-1.89,10.64
24.988000,-84.1250,11,89.37,-1.89,10.64
24.998000,-85.0000,11,89.37,-1.89,10.64
25.008000,-84.1250,11,89.37,-1.89,10.64
25.018000,-87.1250,11,89.37,-1.89,10.64
25.028000,-87.5000,11,89.37,-1.89,10.64
25.038000,-87.5000,11,89.37,-1.89,10.64
25.048000,-86.6250,11,89.37,-1.89,10.64
25.058000,-87.6250,11,89.37,-1.89,10.64
25.068000,-87.7500,11,89.37,-1.89,10.64
25.078000,-86.1250,11,89.37,-1.89,10.64
25.088000,-82.6250,11,89.37,-1.89,10.64
25.098000,-102.7500,11,89.37,-1.89,10.64
25.108000,-87.5000,11,89.37,-1.89,10.64
25.118000,-90.3750,11,89.37,-1.89,10.64
25.128000,-90.2500,11,89.37,-1.89,10.64
25.138000,-90.0000,11,89.37,-1.89,10.64
25.148000,-90.0000,11,89.37,-1.89,10.64
25.158000,-87.1250,11,89.37,-1.89,10.64
25.168000,-87.6250,11,89.37,-1.89,10.64
25.178000,-84.3750,11,89.37,-1.89,10.64
25.188000,-84.1250,11,89.37,-1.89,10.64
25.198000,-87.5000,11,89.37,-1.89,10.64
25.208000,-93.0000,11,89.37,-1.89,10.64
25.218000,-96.1250,11,89.37,-1.89,10.64
25.228000,-97.5000,11,89.37,-1.89,10.64
25.238000,-97.5000,11,89.37,-1.89,10.64
25.248000,-94.6250,11,89.37,-1.89,10.64
25.258000,-96.2500,11,89.37,-1.89,10.64
25.268000,-95.6250,11,89.37,-1.89,10.64
25.278000,-95.0000,11,89.37,-1.89,10.64
25.288000,-97.2500,11,89.37,-1.89,10.64
25.298000,-95.6250,11,89.37,-1.89,10.64
25.308000,-96.2500,11,89.37,-1.89,10.64
25.318000,-97.0000,11,89.37,-1.89,10.64
25.328000,-83.1250,11,89.37,-1.89,10.64
25.338000,-99.5000,11,89.37,-1.89,10.64
25.348000,-101.2500,11,89.37,-1.89,10.64
25.358000,-91.1250,11,89.37,-1.89,10.64
25.368000,-91.3750,11,89.37,-1.89,10.64
25.378000,-93.2500,11,89.37,-1.89,10.64
25.388000,-90.3750,11,89.37,-1.89,10.64
25.398000,-91.3750,11,89.37,-1.89,10.64
25.408000,-87.7500,11,89.37,-1.89,10.64
25.418000,-84.8750,11,89.37,-1.89,10.64
25.428000,-85.8750,11,89.37,-1.89,10.64
25.438000,-92.5000,11,89.37,-1.89,10.64
25.448000,-93.2500,11,89.37,-1.89,10.64
25.458000,-92.1250,11,89.37,-1.89,10.64
25.468000,-90.7500,11,89.37,-1.89,10.64
25.478000,-90.5000,11,89.37,-1.89,10.64
25.488000,-92.0000,11,89.37,-1.89,10.64
25.498000,-91.8750,11,89.37,-1.89,10.64
25.508000,-91.5000,11,89.37,-1.89,10.64
25.518000,-91.8750,11,89.37,-1.89,10.64
25.528000,-92.6250,11,89.37,-1.89,10.64
25.538000,-89.6250,11,89.37,-1.89,10.64
25.548000,-80.3750,11,89.37,-1.89,10.64
25.558000,-97.6250,11,89.37,-1.89,10.64
25.568000,-95.3750,11,89.37,-1.89,10.64
25.578000,-88.3750,11,89.37,-1.89,10.64
25.588000,-89.3750,11,89.37,-1.89,10.64
25.598000,-88.8750,11,89.37,-1.89,10.64
25.608000,-88.3750,11,89.37,-1.89,10.64
25.618000,-89.6250,11,89.37,-1.89,10.64
25.628000,-86.3750,11,89.37,-1.89,10.64
25.638000,-87.8750,11,89.37,-1.89,10.64
25.648000,-82.8750,11,89.37,-1.89,10.64
25.658000,-88.3750,11,89.37,-1.89,10.64
25.668000,-93.6250,11,89.37,-1.89,10.64
25.678000,-93.1250,11,89.37,-1.89,10.64
25.688000,-91.0000,11,89.37,-1.89,10.64
25.698000,-90.8750,11,89.37,-1.89,10.64
25.708000,-90.3750,11,89.37,-1.89,10.64
25.718000,-89.8750,11,89.37,-1.89,10.64
25.728000,-89.8750,11,89.37,-1.89,10.64
25.738000,-89.7500,11,89.37,-1.89,10.64
25.748000,-90.1250,11,89.37,-1.89,10.64
25.758000,-89.6250,11,89.37,-1.89,10.64
25.768000,-89.5000,11,89.37,-1.89,10.64
25.778000,-88.1250,11,89.37,-1.89,10.64
25.788000,-88.0000,11,89.37,-1.89,10.64
25.798000,-88.7500,11,89.37,-1.89,10.64
25.808000,-91.1250,11,89.37,-1.89,10.64
25.818000,-89.8750,11,89.37,-1.89,10.64
25.828000,-91.7500,11,89.37,-1.89,10.64
25.838000,-89.6250,11,89.37,-1.89,10.64
25.848000,-92.3750,11,89.37,-1.89,10.64
25.858000,-90.0000,11,89.37,-1.89,10.64
25.868000,-91.5000,11,89.37,-1.89,10.64
25.878000,-85.2500,11,89.37,-1.89,10.64
25.888000,-77.5000,11,89.37,-1.89,10.64
25.898000,-82.2500,11,89.37,-1.89,10.64
25.908000,-102.1250,11,89.37,-1.89,10.64
25.918000,-106.6250,11,89.37,-1.89,10.64
25.928000,-92.2500,11,89.37,-1.89,10.64
25.938000,-88.2500,11,89.37,-1.89,10.64
25.948000,-89.6250,11,89.37,-1.89,10.64
25.958000,-89.8750,11,89.37,-1.89,10.64
25.968000,-89.1250,11,89.37,-1.89,10.64
25.978000,-88.6250,11,89.37,-1.89,10.64
25.988000,-88.0000,11,89.37,-1.89,10.64
25.998000,-88.1250,11,89.37,-1.89,10.64
26.008000,-87.0000,11,89.37,-1.89,10.64
26.018000,-88.2500,11,89.37,-1.89,10.64
26.028000,-86.5000,11,89.37,-1.89,10.64
26.038000,-87.0000,11,89.37,-1.89,10.64
26.048000,-84.8750,11,89.37,-1.89,10.64
26.058000,-84.2500,11,89.37,-1.89,10.64
26.068000,-83.0000,11,89.37,-1.89,10.64
26.078000,-83.3750,11,89.37,-1.89,10.64
26.088000,-81.8750,11,89.37,-1.89,10.64
26.098000,-82.6250,11,89.37,-1.89,10.64
26.108000,-83.5000,11,89.37,-1.89,10.64
26.118000,-86.2500,11,89.37,-1.89,10.64
26.128000,-88.5000,11,89.37,-1.89,10.64
26.138000,-93.3750,11,89.37,-1.89,10.64
26.148000,-95.5000,11,89.37,-1.89,10.64
26.158000,-95.0000,11,89.37,-1.89,10.64
26.168000,-93.6250,11,89.37,-1.89,10.64
26.178000,-94.2500,11,89.37,-1.89,10.64
26.188000,-93.0000,11,89.37,-1.89,10.64
26.198000,-94.8750,11,89.37,-1.89,10.64
26.208000,-92.8750,11,89.37,-1.89,10.64
26.218000,-94.5000,11,89.37,-1.89,10.64
26.228000,-91.7500,11,89.37,-1.89,10.64
26.238000,-94.0000,11,89.37,-1.89,10.64
26.248000,-91.5000,11,89.37,-1.89,10.64
26.258000,-94.1250,11,89.37,-1.89,10.64
26.268000,-90.6250,11,89.37,-1.89,10.64
26.278000,-93.7500,11,89.37,-1.89,10.64
26.288000,-91.2500,11,89.37,-1.89,10.64
26.298000,-93.3750,11,89.37,-1.89,10.64
26.308000,-91.2500,11,89.37,-1.89,10.64
26.318000,-94.0000,11,89.37,-1.89,10.64
26.328000,-92.3750,11,89.37,-1.89,10.64
26.338000,-93.6250,11,89.37,-1.89,10.64
26.348000,-92.8750,11,89.37,-1.89,10.64
26.358000,-93.8750,11,89.37,-1.89,10.64
26.368000,-92.8750,11,89.37,-1.89,10.64
26.378000,-93.7500,11,89.37,-1.89,10.64
26.388000,-92.5000,11,89.37,-1.89,10.64
26.398000,-93.6250,11,89.37,-1.89,10.64
26.408000,-91.5000,11,89.37,-1.89,10.64
26.418000,-91.7500,13,90.73,2.12,12.39
26.428000,-90.3750,13,90.73,2.12,12.39
26.438000,-90.1250,13,90.73,2.12,12.39
26.448000,-90.7500,13,90.73,2.12,12.39
26.458000,-91.3750,13,90.73,2.12,12.39
26.468000,-91.3750,13,90.73,2.12,12.39
26.478000,-93.2500,13,90.73,2.12,12.39
26.488000,-93.6250,13,90.73,2.12,12.39
26.498000,-93.1250,13,90.73,2.12,12.39
26.508000,-93.7500,13,90.73,2.12,12.39
26.518000,-93.5000,13,90.73,2.12,12.39
26.528000,-94.0000,13,90.73,2.12,12.39
26.538000,-93.1250,13,90.73,2.12,12.39
26.548000,-93.7500,13,90.73,2.12,12.39
26.558000,-88.3750,13,90.73,2.12,12.39
26.568000,-81.6250,13,90.73,2.12,12.39
26.578000,-83.1250,13,90.73,2.12,12.39
26.588000,-96.6250,13,90.73,2.12,12.39
26.598000,-108.8750,13,90.73,2.12,12.39
26.608000,-95.3750,13,90.73,2.12,12.39
26.618000,-89.8750,13,90.73,2.12,12.39
26.628000,-90.7500,13,90.73,2.12,12.39
26.638000,-91.0000,13,90.73,2.12,12.39
26.648000,-91.3750,13,90.73,2.12,12.39
26.658000,-91.5000,13,90.73,2.12,12.39
26.668000,-91.5000,13,90.73,2.12,12.39
26.678000,-91.3750,13,90.73,2.12,12.39
26.688000,-90.5000,13,90.73,2.12,12.39
26.698000,-90.1250,13,90.73,2.12,12.39
26.708000,-90.0000,13,90.73,2.12,12.39
26.718000,-89.6250,13,90.73,2.12,12.39
26.728000,-89.3750,13,90.73,2.12,12.39
26.738000,-87.7500,13,90.73,2.12,12.39
26.748000,-87.1250,13,90.73,2.12,12.39
26.758000,-86.3750,13,90.73,2.12,12.39
26.768000,-86.0000,13,90.73,2.12,12.39
26.778000,-86.1250,13,90.73,2.12,12.39
26.788000,-85.7500,13,90.73,2.12,12.39
26.798000,-87.3750,13,90.73,2.12,12.39
26.808000,-90.0000,13,90.73,2.12,12.39
26.818000,-91.3750,13,90.73,2.12,12.39
26.828000,-94.2500,13,90.73,2.12,12.39
26.838000,-95.0000,13,90.73,2.12,12.39
26.848000,-96.7500,13,90.73,2.12,12.39
26.858000,-95.6250,13,90.73,2.12,12.39
26.868000,-96.5000,13,90.73,2.12,12.39
26.878000,-95.0000,13,90.73,2.12,12.39
26.888000,-96.2500,13,90.73,2.12,12.39
26.898000,-95.1250,13,90.73,2.12,12.39
26.908000,-96.3750,13,90.73,2.12,12.39
26.918000,-94.2500,13,90.73,2.12,12.39
26.928000,-95.5000,13,90.73,2.12,12.39
26.938000,-93.0000,13,90.73,2.12,12.39
26.948000,-94.6250,13,90.73,2.12,12.39
26.958000,-92.5000,13,90.73,2.12,12.39
26.968000,-93.8750,13,90.73,2.12,12.39
26.978000,-92.5000,13,90.73,2.12,12.39
26.988000,-93.7500,13,90.73,2.12,12.39
26.998000,-92.8750,13,90.73,2.12,12.39
27.008000,-93.2500,13,90.73,2.12,12.39
27.018000,-92.0000,13,90.73,2.12,12.39
27.028000,-93.8750,13,90.73,2.12,12.39
27.038000,-92.5000,13,90.73,2.12,12.39
27.048000,-93.7500,13,90.73,2.12,12.39
27.058000,-91.7500,13,90.73,2.12,12.39
27.068000,-93.3750,13,90.73,2.12,12.39
27.078000,-91.7500,13,90.73,2.12,12.39
27.088000,-92.8750,13,90.73,2.12,12.39
27.098000,-91.2500,13,90.73,2.12,12.39
27.108000,-93.0000,13,90.73,2.12,12.39
27.118000,-91.0000,13,90.73,2.12,12.39
27.128000,-91.5000,13,90.73,2.12,12.39
27.138000,-89.5000,13,90.73,2.12,12.39
27.148000,-91.0000,13,90.73,2.12,12.39
27.158000,-89.3750,13,90.73,2.12,12.39
27.168000,-90.6250,13,90.73,2.12,12.39
27.178000,-88.5000,13,90.73,2.12,12.39
27.188000,-91.0000,13,90.73,2.12,12.39
27.198000,-89.5000,13,90.73,2.12,12.39
27.208000,-92.2500,13,90.73,2.12,12.39
27.218000,-90.6250,13,90.73,2.12,12.39
27.228000,-91.8750,13,90.73,2.12,12.39
27.238000,-90.6250,13,90.73,2.12,12.39
27.248000,-91.6250,13,90.73,2.12,12.39
27.258000,-90.1250,13,90.73,2.12,12.39
27.268000,-91.5000,13,90.73,2.12,12.39
27.278000,-89.0000,13,90.73,2.12,12.39
27.288000,-86.0000,13,90.73,2.12,12.39
27.298000,-76.6250,13,90.73,2.12,12.39
27.308000,-80.1250,13,90.73,2.12,12.39
27.318000,-91.0000,13,90.73,2.12,12.39
27.328000,-105.2500,13,90.73,2.12,12.39
27.338000,-92.0000,13,90.73,2.12,12.39
27.348000,-85.0000,13,90.73,2.12,12.39
27.358000,-83.1250,13,90.73,2.12,12.39
27.368000,-83.8750,13,90.73,2.12,12.39
27.378000,-81.8750,13,90.73,2.12,12.39
27.388000,-82.1250,13,90.73,2.12,12.39
27.398000,-80.2500,13,90.73,2.12,12.39
27.408000,-80.5000,13,90.73,2.12,12.39
27.418000,-78.5000,13,90.73,2.12,12.39
27.428000,-78.5000,13,90.73,2.12,12.39
27.438000,-77.1250,13,90.73,2.12,12.39
27.448000,-76.5000,13,90.73,2.12,12.39
27.458000,-75.1250,13,90.73,2.12,12.39
27.468000,-74.1250,13,90.73,2.12,12.39
27.478000,-72.8750,13,90.73,2.12,12.39
27.488000,-72.1250,13,90.73,2.12,12.39
27.498000,-71.1250,13,90.73,2.12,12.39
27.508000,-70.7500,13,90.73,2.12,12.39
27.518000,-71.0000,13,90.73,2.12,12.39
27.528000,-71.3750,13,90.73,2.12,12.39
27.538000,-73.5000,13,90.73,2.12,12.39
27.548000,-75.0000,13,90.73,2.12,12.39
27.558000,-78.0000,13,90.73,2.12,12.39
27.568000,-78.7500,13,90.73,2.12,12.39
27.578000,-80.3750,13,90.73,2.12,12.39
27.588000,-80.1250,13,90.73,2.12,12.39
27.598000,-82.0000,13,90.73,2.12,12.39
27.608000,-80.5000,13,90.73,2.12,12.39
27.618000,-81.6250,13,90.73,2.12,12.39
27.628000,-79.7500,13,90.73,2.12,12.39
27.638000,-81.3750,13,90.73,2.12,12.39
27.648000,-81.5000,13,90.73,2.12,12.39
27.658000,-80.7500,13,90.73,2.12,12.39
27.668000,-80.2500,13,90.73,2.12,12.39
27.678000,-80.3750,13,90.73,2.12,12.39
27.688000,-80.2500,13,90.73,2.12,12.39
27.698000,-80.1250,13,90.73,2.12,12.39
27.708000,-80.0000,13,90.73,2.12,12.39
27.718000,-80.1250,13,90.73,2.12,12.39
27.728000,-79.6250,13,90.73,2.12,12.39
27.738000,-80.5000,13,90.73,2.12,12.39
27.748000,-80.0000,13,90.73,2.12,12.39
27.758000,-80.1250,13,90.73,2.12,12.39
27.768000,-80.5000,13,90.73,2.12,12.39
27.778000,-80.0000,13,90.73,2.12,12.39
27.788000,-79.6250,13,90.73,2.12,12.39
27.798000,-79.7500,13,90.73,2.12,12.39
27.808000,-79.1250,13,90.73,2.12,12.39
27.818000,-79.3750,13,90.73,2.12,12.39
27.828000,-79.1250,13,90.73,2.12,12.39
27.838000,-79.0000,13,90.73,2.12,12.39
27.848000,-78.6250,13,90.73,2.12,12.39
27.858000,-78.1250,13,90.73,2.12,12.39
27.868000,-76.0000,13,90.73,2.12,12.39
27.878000,-76.8750,13,90.73,2.12,12.39
27.888000,-75.5000,13,90.73,2.12,12.39
27.898000,-75.8750,13,90.73,2.12,12.39
27.908000,-75.2500,13,90.73,2.12,12.39
27.918000,-76.6250,13,90.73,2.12,12.39
27.928000,-75.3750,13,90.73,2.12,12.39
27.938000,-77.8750,13,90.73,2.12,12.39
27.948000,-77.3750,13,90.73,2.12,12.39
27.958000,-79.0000,13,90.73,2.12,12.39
27.968000,-76.8750,13,90.73,2.12,12.39
27.978000,-79.2500,13,90.73,2.12,12.39
27.988000,-77.5000,13,90.73,2.12,12.39
27.998000,-79.2500,13,90.73,2.12,12.39
28.008000,-76.7500,13,90.73,2.12,12.39
28.018000,-80.1250,13,90.73,2.12,12.39
28.028000,-72.1250,13,90.73,2.12,12.39
28.038000,-66.0000,13,90.73,2.12,12.39
28.048000,-66.1250,13,90.73,2.12,12.39
28.058000,-83.6250,13,90.73,2.12,12.39
28.068000,-95.1250,13,90.73,2.12,12.39
28.078000,-83.2500,13,90.73,2.12,12.39
28.088000,-73.5000,13,90.73,2.12,12.39
28.098000,-74.2500,13,90.73,2.12,12.39
28.108000,-74.2500,13,90.73,2.12,12.39
28.118000,-74.1250,13,90.73,2.12,12.39
28.128000,-71.1250,13,90.73,2.12,12.39
28.138000,-70.1250,13,90.73,2.12,12.39
28.148000,-67.7500,13,90.73,2.12,12.39
28.158000,-69.1250,13,90.73,2.12,12.39
28.168000,-77.2500,13,90.73,2.12,12.39
28.178000,-77.5000,13,90.73,2.12,12.39
28.188000,-80.6250,13,90.73,2.12,12.39
28.198000,-78.6250,13,90.73,2.12,12.39
28.208000,-80.5000,13,90.73,2.12,12.39
28.218000,-79.7500,13,90.73,2.12,12.39
28.228000,-81.7500,13,90.73,2.12,12.39
28.238000,-82.7500,13,90.73,2.12,12.39
28.248000,-81.8750,13,90.73,2.12,12.39
28.258000,-82.1250,13,90.73,2.12,12.39
28.268000,-81.0000,13,90.73,2.12,12.39
28.278000,-81.3750,13,90.73,2.12,12.39
28.288000,-81.2500,13,90.73,2.12,12.39
28.298000,-81.6250,13,90.73,2.12,12.39
28.308000,-81.1250,13,90.73,2.12,12.39
28.318000,-81.2500,13,90.73,2.12,12.39
28.328000,-80.1250,13,90.73,2.12,12.39
28.338000,-81.0000,13,90.73,2.12,12.39
28.348000,-79.3750,13,90.73,2.12,12.39
28.358000,-88.2500,13,90.73,2.12,12.39
28.368000,-74.6250,13,90.73,2.12,12.39
28.378000,-74.7500,13,90.73,2.12,12.39
28.388000,-67.3750,13,90.73,2.12,12.39
28.398000,-76.8750,13,90.73,2.12,12.39
28.408000,-76.6250,13,90.73,2.12,12.39
28.418000,-75.3750,13,90.73,2.12,12.39
28.428000,-74.5000,13,90.73,2.12,12.39
28.438000,-74.3750,13,90.73,2.12,12.39
28.448000,-75.3750,13,90.73,2.12,12.39
28.458000,-74.1250,13,90.73,2.12,12.39
28.468000,-73.2500,13,90.73,2.12,12.39
28.478000,-72.7500,13,90.73,2.12,12.39
28.488000,-74.5000,13,90.73,2.12,12.39
28.498000,-72.6250,13,90.73,2.12,12.39
28.508000,-73.8750,13,90.73,2.12,12.39
28.518000,-71.7500,13,90.73,2.12,12.39
28.528000,-72.6250,13,90.73,2.12,12.39
28.538000,-70.6250,13,90.73,2.12,12.39
28.548000,-71.8750,13,90.73,2.12,12.39
28.558000,-70.2500,13,90.73,2.12,12.39
28.568000,-71.8750,13,90.73,2.12,12.39
28.578000,-71.1250,13,90.73,2.12,12.39
28.588000,-71.3750,13,90.73,2.12,12.39
28.598000,-69.0000,13,90.73,2.12,12.39
28.608000,-74.6250,13,90.73,2.12,12.39
28.618000,-66.3750,13,90.73,2.12,12.39
28.628000,-63.6250,13,90.73,2.12,12.39
28.638000,-69.7500,13,90.73,2.12,12.39
28.648000,-67.0000,13,90.73,2.12,12.39
28.658000,-67.6250,13,90.73,2.12,12.39
28.668000,-66.0000,13,90.73,2.12,12.39
28.678000,-65.7500,13,90.73,2.12,12.39
28.688000,-66.0000,13,90.73,2.12,12.39
28.698000,-65.7500,13,90.73,2.12,12.39
28.708000,-65.6250,13,90.73,2.12,12.39
28.718000,-65.6250,13,90.73,2.12,12.39
28.728000,-63.7500,13,90.73,2.12,12.39
28.738000,-60.0000,13,90.73,2.12,12.39
28.748000,-45.8750,13,90.73,2.12,12.39
28.758000,-54.8750,13,90.73,2.12,12.39
28.768000,-57.2500,13,90.73,2.12,12.39
28.778000,-59.6250,13,90.73,2.12,12.39
28.788000,-60.5000,13,90.73,2.12,12.39
28.798000,-60.3750,13,90.73,2.12,12.39
28.808000,-55.1250,13,90.73,2.12,12.39
28.818000,-48.5000,13,90.73,2.12,12.39
28.828000,-78.8750,13,90.73,2.12,12.39
28.838000,-60.1250,13,90.73,2.12,12.39
28.848000,-62.0000,13,90.73,2.12,12.39
28.858000,-60.2500,13,90.73,2.12,12.39
28.868000,-60.0000,13,90.73,2.12,12.39
28.878000,-60.2500,13,90.73,2.12,12.39
28.888000,-59.3750,13,90.73,2.12,12.39
28.898000,-59.3750,13,90.73,2.12,12.39
28.908000,-58.1250,13,90.73,2.12,12.39
28.918000,-57.0000,13,90.73,2.12,12.39
28.928000,-68.0000,13,90.73,2.12,12.39
28.938000,-70.7500,13,90.73,2.12,12.39
28.948000,-78.5000,13,90.73,2.12,12.39
28.958000,-79.7500,13,90.73,2.12,12.39
28.968000,-80.7500,13,90.73,2.12,12.39
28.978000,-80.6250,13,90.73,2.12,12.39
28.988000,-81.0000,13,90.73,2.12,12.39
28.998000,-81.8750,13,90.73,2.12,12.39
29.008000,-82.8750,13,90.73,2.12,12.39
29.018000,-83.2500,13,90.73,2.12,12.39
29.028000,-84.0000,13,90.73,2.12,12.39
29.038000,-84.5000,13,90.73,2.12,12.39
29.048000,-84.8750,13,90.73,2.12,12.39
29.058000,-87.2500,13,90.73,2.12,12.39
29.068000,-88.7500,13,90.73,2.12,12.39
29.078000,-89.1250,13,90.73,2.12,12.39
29.088000,-89.8750,13,90.73,2.12,12.39
29.098000,-84.1250,13,90.73,2.12,12.39
29.108000,-104.6250,13,90.73,2.12,12.39
29.118000,-88.0000,13,90.73,2.12,12.39
29.128000,-86.1250,13,90.73,2.12,12.39
29.138000,-82.7500,13,90.73,2.12,12.39
29.148000,-81.5000,13,90.73,2.12,12.39
29.158000,-80.8750,13,90.73,2.12,12.39
29.168000,-81.1250,13,90.73,2.12,12.39
29.178000,-85.7500,13,90.73,2.12,12.39
29.188000,-91.5000,13,90.73,2.12,12.39
29.198000,-89.5000,13,90.73,2.12,12.39
29.208000,-92.0000,13,90.73,2.12,12.39
29.218000,-90.0000,13,90.73,2.12,12.39
29.228000,-91.8750,13,90.73,2.12,12.39
29.238000,-90.8750,13,90.73,2.12,12.39
29.248000,-90.1250,13,90.73,2.12,12.39
29.258000,-89.1250,13,90.73,2.12,12.39
29.268000,-90.3750,13,90.73,2.12,12.39
29.278000,-90.5000,13,90.73,2.12,12.39
29.288000,-91.1250,13,90.73,2.12,12.39
29.298000,-91.8750,13,90.73,2.12,12.39
29.308000,-91.8750,13,90.73,2.12,12.39
29.318000,-91.7500,13,90.73,2.12,12.39
29.328000,-86.1250,13,90.73,2.12,12.39
29.338000,-98.0000,13,90.73,2.12,12.39
29.348000,-86.2500,13,90.73,2.12,12.39
29.358000,-88.3750,13,90.73,2.12,12.39
29.368000,-80.8750,13,90.73,2.12,12.39
29.378000,-80.0000,13,90.73,2.12,12.39
29.388000,-81.0000,13,90.73,2.12,12.39
29.398000,-85.0000,13,90.73,2.12,12.39
29.408000,-89.7500,13,90.73,2.12,12.39
29.418000,-90.3750,13,90.73,2.12,12.39
29.428000,-90.3750,13,90.73,2.12,12.39
29.438000,-90.5000,13,90.73,2.12,12.39
29.448000,-92.3750,13,90.73,2.12,12.39
29.458000,-93.5000,13,90.73,2.12,12.39
29.468000,-93.2500,13,90.73,2.12,12.39
29.478000,-92.7500,13,90.73,2.12,12.39
29.488000,-93.2500,13,90.73,2.12,12.39
29.498000,-92.7500,13,90.73,2.12,12.39
29.508000,-94.1250,13,90.73,2.12,12.39
29.518000,-95.0000,13,90.73,2.12,12.39
29.528000,-95.8750,13,90.73,2.12,12.39
29.538000,-96.3750,13,90.73,2.12,12.39
29.548000,-96.8750,13,90.73,2.12,12.39
29.558000,-98.3750,13,90.73,2.12,12.39
29.568000,-112.5000,13,90.73,2.12,12.39
29.578000,-92.3750,13,90.73,2.12,12.39
29.588000,-92.1250,13,90.73,2.12,12.39
29.598000,-89.0000,13,90.73,2.12,12.39
29.608000,-83.2500,13,90.73,2.12,12.39
29.618000,-86.0000,13,90.73,2.12,12.39
29.628000,-86.1250,13,90.73,2.12,12.39
29.638000,-90.2500,13,90.73,2.12,12.39
29.648000,-91.3750,13,90.73,2.12,12.39
29.658000,-91.6250,13,90.73,2.12,12.39
29.668000,-91.6250,13,90.73,2.12,12.39
29.678000,-90.8750,13,90.73,2.12,12.39
29.688000,-90.2500,13,90.73,2.12,12.39
29.698000,-92.7500,13,90.73,2.12,12.39
29.708000,-91.8750,13,90.73,2.12,12.39
29.718000,-90.8750,13,90.73,2.12,12.39
29.728000,-91.0000,13,90.73,2.12,12.39
29.738000,-89.8750,13,90.73,2.12,12.39
29.748000,-89.6250,13,90.73,2.12,12.39
29.758000,-89.0000,13,90.73,2.12,12.39
29.768000,-76.8750,13,90.73,2.12,12.39
29.778000,-80.2500,13,90.73,2.12,12.39
29.788000,-97.5000,13,90.73,2.12,12.39
29.798000,-86.5000,13,90.73,2.12,12.39
29.808000,-88.7500,13,90.73,2.12,12.39
29.818000,-88.1250,13,90.73,2.12,12.39
29.828000,-88.3750,13,90.73,2.12,12.39
29.838000,-87.0000,13,90.73,2.12,12.39
29.848000,-84.0000,13,90.73,2.12,12.39
29.858000,-83.6250,13,90.73,2.12,12.39
29.868000,-81.6250,13,90.73,2.12,12.39
29.878000,-81.3750,13,90.73,2.12,12.39
29.888000,-80.2500,13,90.73,2.12,12.39
29.898000,-78.7500,13,90.73,2.12,12.39
29.908000,-77.8750,13,90.73,2.12,12.39
29.918000,-79.0000,13,90.73,2.12,12.39
29.928000,-79.8750,13,90.73,2.12,12.39
29.938000,-82.7500,13,90.73,2.12,12.39
29.948000,-84.2500,13,90.73,2.12,12.39
29.958000,-86.3750,13,90.73,2.12,12.39
29.968000,-86.7500,13,90.73,2.12,12.39
29.978000,-88.6250,13,90.73,2.12,12.39
29.988000,-87.0000,13,90.73,2.12,12.39
29.998000,-87.6250,13,90.73,2.12,12.39
30.008000,-87.7500,13,90.73,2.12,12.39
30.018000,-87.2500,13,90.73,2.12,12.39
30.028000,-87.2500,13,90.73,2.12,12.39
30.038000,-86.2500,13,90.73,2.12,12.39
30.048000,-86.0000,13,90.73,2.12,12.39
30.058000,-86.7500,13,90.73,2.12,12.39
30.068000,-87.2500,13,90.73,2.12,12.39
30.078000,-84.7500,13,90.73,2.12,12.39
30.088000,-87.3750,13,90.73,2.12,12.39
30.098000,-84.7500,13,90.73,2.12,12.39
30.108000,-86.7500,13,90.73,2.12,12.39
30.118000,-85.8750,13,90.73,2.12,12.39
30.128000,-87.6250,13,90.73,2.12,12.39
30.138000,-85.3750,13,90.73,2.12,12.39
30.148000,-87.5000,13,90.73,2.12,12.39
30.158000,-85.6250,13,90.73,2.12,12.39
30.168000,-87.5000,13,90.73,2.12,12.39
30.178000,-85.8750,13,90.73,2.12,12.39
30.188000,-85.6250,13,90.73,2.12,12.39
30.198000,-85.5000,13,90.73,2.12,12.39
30.208000,-85.6250,13,90.73,2.12,12.39
30.218000,-82.8750,13,90.73,2.12,12.39
30.228000,-85.0000,13,90.73,2.12,12.39
30.238000,-84.5000,13,90.73,2.12,12.39
30.248000,-86.0000,13,90.73,2.12,12.39
30.258000,-86.1250,13,90.73,2.12,12.39
30.268000,-85.6250,13,90.73,2.12,12.39
30.278000,-86.5000,13,90.73,2.12,12.39
30.288000,-86.0000,13,90.73,2.12,12.39
30.298000,-86.6250,13,90.73,2.12,12.39
30.308000,-86.1250,13,90.73,2.12,12.39
30.318000,-87.5000,13,90.73,2.12,12.39
30.328000,-85.0000,13,90.73,2.12,12.39
30.338000,-79.7500,13,90.73,2.12,12.39
30.348000,-74.0000,13,90.73,2.12,12.39
30.358000,-79.6250,13,90.73,2.12,12.39
30.368000,-96.2500,13,90.73,2.12,12.39
30.378000,-96.3750,13,90.73,2.12,12.39
30.388000,-84.0000,13,90.73,2.12,12.39
30.398000,-83.6250,13,90.73,2.12,12.39
30.408000,-83.8750,13,90.73,2.12,12.39
30.418000,-84.0000,13,90.73,2.12,12.39
30.428000,-84.0000,13,90.73,2.12,12.39
30.438000,-83.3750,13,90.73,2.12,12.39
30.448000,-83.3750,13,90.73,2.12,12.39
30.458000,-82.8750,13,90.73,2.12,12.39
30.468000,-82.7500,13,90.73,2.12,12.39
30.478000,-82.6250,13,90.73,2.12,12.39
30.488000,-82.0000,13,90.73,2.12,12.39
30.498000,-81.0000,13,90.73,2.12,12.39
30.508000,-80.5000,13,90.73,2.12,12.39
30.518000,-79.1250,13,90.73,2.12,12.39
30.528000,-78.7500,13,90.73,2.12,12.39
30.538000,-77.6250,13,90.73,2.12,12.39
30.548000,-77.8750,13,90.73,2.12,12.39
30.558000,-76.8750,13,90.73,2.12,12.39
30.568000,-77.8750,15,87.27,0.10,12.85
30.578000,-79.8750,15,87.27,0.10,12.85
30.588000,-82.2500,15,87.27,0.10,12.85
30.598000,-84.2500,15,87.27,0.10,12.85
30.608000,-85.2500,15,87.27,0.10,12.85
30.618000,-87.1250,15,87.27,0.10,12.85
30.628000,-87.0000,15,87.27,0.10,12.85
30.638000,-87.8750,15,87.27,0.10,12.85
30.648000,-87.3750,15,87.27,0.10,12.85
30.658000,-87.8750,15,87.27,0.10,12.85
30.668000,-87.0000,15,87.27,0.10,12.85
30.678000,-88.7500,15,87.27,0.10,12.85
30.688000,-86.7500,15,87.27,0.10,12.85
30.698000,-88.5000,15,87.27,0.10,12.85
30.708000,-86.8750,15,87.27,0.10,12.85
30.718000,-87.8750,15,87.27,0.10,12.85
30.728000,-86.1250,15,87.27,0.10,12.85
30.738000,-87.7500,15,87.27,0.10,12.85
30.748000,-85.8750,15,87.27,0.10,12.85
30.758000,-87.2500,15,87.27,0.10,12.85
30.768000,-85.6250,15,87.27,0.10,12.85
30.778000,-88.0000,15,87.27,0.10,12.85
30.788000,-86.0000,15,87.27,0.10,12.85
30.798000,-88.0000,15,87.27,0.10,12.85
30.808000,-85.8750,15,87.27,0.10,12.85
30.818000,-88.5000,15,87.27,0.10,12.85
30.828000,-87.2500,15,87.27,0.10,12.85
30.838000,-88.7500,15,87.27,0.10,12.85
30.848000,-87.6250,15,87.27,0.10,12.85
30.858000,-89.0000,15,87.27,0.10,12.85
30.868000,-86.7500,15,87.27,0.10,12.85
30.878000,-87.8750,15,87.27,0.10,12.85
30.888000,-86.0000,15,87.27,0.10,12.85
30.898000,-86.5000,15,87.27,0.10,12.85
30.908000,-85.6250,15,87.27,0.10,12.85
30.918000,-86.2500,15,87.27,0.10,12.85
30.928000,-86.1250,15,87.27,0.10,12.85
30.938000,-87.5000,15,87.27,0.10,12.85
30.948000,-86.3750,15,87.27,0.10,12.85
30.958000,-89.3750,15,87.27,0.10,12.85
30.968000,-87.7500,15,87.27,0.10,12.85
30.978000,-88.5000,15,87.27,0.10,12.85
30.988000,-88.1250,15,87.27,0.10,12.85
30.998000,-88.7500,15,87.27,0.10,12.85
31.008000,-87.6250,15,87.27,0.10,12.85
31.018000,-88.5000,15,87.27,0.10,12.85
31.028000,-86.3750,15,87.27,0.10,12.85
31.038000,-81.0000,15,87.27,0.10,12.85
31.048000,-74.3750,15,87.27,0.10,12.85
31.058000,-82.0000,15,87.27,0.10,12.85
31.068000,-97.8750,15,87.27,0.10,12.85
31.078000,-99.6250,15,87.27,0.10,12.85
31.088000,-85.6250,15,87.27,0.10,12.85
31.098000,-84.7500,15,87.27,0.10,12.85
31.108000,-84.8750,15,87.27,0.10,12.85
31.118000,-84.6250,15,87.27,0.10,12.85
31.128000,-84.0000,15,87.27,0.10,12.85
31.138000,-84.2500,15,87.27,0.10,12.85
31.148000,-82.5000,15,87.27,0.10,12.85
31.158000,-82.6250,15,87.27,0.10,12.85
31.168000,-81.6250,15,87.27,0.10,12.85
31.178000,-82.6250,15,87.27,0.10,12.85
31.188000,-81.8750,15,87.27,0.10,12.85
31.198000,-81.6250,15,87.27,0.10,12.85
31.208000,-80.6250,15,87.27,0.10,12.85
31.218000,-79.8750,15,87.27,0.10,12.85
31.228000,-77.8750,15,87.27,0.10,12.85
31.238000,-77.6250,15,87.27,0.10,12.85
31.248000,-78.1250,15,87.27,0.10,12.85
31.258000,-77.6250,15,87.27,0.10,12.85
31.268000,-78.5000,15,87.27,0.10,12.85
31.278000,-79.3750,15,87.27,0.10,12.85
31.288000,-81.8750,15,87.27,0.10,12.85
31.298000,-83.3750,15,87.27,0.10,12.85
31.308000,-86.0000,15,87.27,0.10,12.85
31.318000,-86.1250,15,87.27,0.10,12.85
31.328000,-87.5000,15,87.27,0.10,12.85
31.338000,-86.8750,15,87.27,0.10,12.85
31.348000,-89.1250,15,87.27,0.10,12.85
31.358000,-86.6250,15,87.27,0.10,12.85
31.368000,-88.3750,15,87.27,0.10,12.85
31.378000,-86.5000,15,87.27,0.10,12.85
31.388000,-88.3750,15,87.27,0.10,12.85
31.398000,-87.3750,15,87.27,0.10,12.85
31.408000,-87.6250,15,87.27,0.10,12.85
31.418000,-87.0000,15,87.27,0.10,12.85
31.428000,-86.8750,15,87.27,0.10,12.85
31.438000,-86.6250,15,87.27,0.10,12.85
31.448000,-87.8750,15,87.27,0.10,12.85
31.458000,-87.2500,15,87.27,0.10,12.85
31.468000,-87.7500,15,87.27,0.10,12.85
31.478000,-87.1250,15,87.27,0.10,12.85
31.488000,-87.7500,15,87.27,0.10,12.85
31.498000,-87.3750,15,87.27,0.10,12.85
31.508000,-87.6250,15,87.27,0.10,12.85
31.518000,-87.8750,15,87.27,0.10,12.85
31.528000,-88.1250,15,87.27,0.10,12.85
31.538000,-87.5000,15,87.27,0.10,12.85
31.548000,-88.2500,15,87.27,0.10,12.85
31.558000,-87.3750,15,87.27,0.10,12.85
31.568000,-88.1250,15,87.27,0.10,12.85
31.578000,-87.1250,15,87.27,0.10,12.85
31.588000,-88.1250,15,87.27,0.10,12.85
31.598000,-87.2500,15,87.27,0.10,12.85
31.608000,-87.0000,15,87.27,0.10,12.85
31.618000,-85.7500,15,87.27,0.10,12.85
31.628000,-86.8750,15,87.27,0.10,12.85
31.638000,-85.7500,15,87.27,0.10,12.85
31.648000,-86.1250,15,87.27,0.10,12.85
31.658000,-87.0000,15,87.27,0.10,12.85
31.668000,-88.7500,15,87.27,0.10,12.85
31.678000,-87.6250,15,87.27,0.10,12.85
31.688000,-89.3750,15,87.27,0.10,12.85
31.698000,-87.7500,15,87.27,0.10,12.85
31.708000,-89.0000,15,87.27,0.10,12.85
31.718000,-87.2500,15,87.27,0.10,12.85
31.728000,-89.2500,15,87.27,0.10,12.85
31.738000,-86.2500,15,87.27,0.10,12.85
31.748000,-88.3750,15,87.27,0.10,12.85
31.758000,-80.8750,15,87.27,0.10,12.85
31.768000,-75.6250,15,87.27,0.10,12.85
31.778000,-76.7500,15,87.27,0.10,12.85
31.788000,-95.7500,15,87.27,0.10,12.85
31.798000,-102.2500,15,87.27,0.10,12.85
31.808000,-89.3750,15,87.27,0.10,12.85
31.818000,-82.5000,15,87.27,0.10,12.85
31.828000,-86.5000,15,87.27,0.10,12.85
31.838000,-83.6250,15,87.27,0.10,12.85
31.848000,-85.5000,15,87.27,0.10,12.85
31.858000,-83.0000,15,87.27,0.10,12.85
31.868000,-83.1250,15,87.27,0.10,12.85
31.878000,-82.0000,15,87.27,0.10,12.85
31.888000,-82.8750,15,87.27,0.10,12.85
31.898000,-81.0000,15,87.27,0.10,12.85
31.908000,-81.7500,15,87.27,0.10,12.85
31.918000,-79.8750,15,87.27,0.10,12.85
31.928000,-80.7500,15,87.27,0.10,12.85
31.938000,-78.1250,15,87.27,0.10,12.85
31.948000,-78.5000,15,87.27,0.10,12.85
31.958000,-75.7500,15,87.27,0.10,12.85
31.968000,-75.2500,15,87.27,0.10,12.85
31.978000,-74.7500,15,87.27,0.10,12.85
31.988000,-75.3750,15,87.27,0.10,12.85
31.998000,-76.3750,15,87.27,0.10,12.85
32.008000,-79.0000,15,87.27,0.10,12.85
32.018000,-81.1250,15,87.27,0.10,12.85
32.028000,-83.1250,15,87.27,0.10,12.85
32.038000,-84.7500,15,87.27,0.10,12.85
32.048000,-85.1250,15,87.27,0.10,12.85
32.058000,-86.5000,15,87.27,0.10,12.85
32.068000,-86.5000,15,87.27,0.10,12.85
32.078000,-87.1250,15,87.27,0.10,12.85
32.088000,-87.0000,15,87.27,0.10,12.85
32.098000,-87.1250,15,87.27,0.10,12.85
32.108000,-87.2500,15,87.27,0.10,12.85
32.118000,-87.1250,15,87.27,0.10,12.85
32.128000,-86.5000,15,87.27,0.10,12.85
32.138000,-87.3750,15,87.27,0.10,12.85
32.148000,-86.8750,15,87.27,0.10,12.85
32.158000,-86.1250,15,87.27,0.10,12.85
32.168000,-88.0000,15,87.27,0.10,12.85
32.178000,-89.1250,15,87.27,0.10,12.85
32.188000,-87.0000,15,87.27,0.10,12.85
32.198000,-87.6250,15,87.27,0.10,12.85
32.208000,-87.3750,15,87.27,0.10,12.85
32.218000,-87.7500,15,87.27,0.10,12.85
32.228000,-88.3750,15,87.27,0.10,12.85
32.238000,-90.8750,15,87.27,0.10,12.85
32.248000,-91.1250,15,87.27,0.10,12.85
32.258000,-85.5000,15,87.27,0.10,12.85
32.268000,-75.5000,15,87.27,0.10,12.85
32.278000,-105.0000,15,87.27,0.10,12.85
32.288000,-86.0000,15,87.27,0.10,12.85
32.298000,-88.0000,15,87.27,0.10,12.85
32.308000,-86.5000,15,87.27,0.10,12.85
32.318000,-87.6250,15,87.27,0.10,12.85
32.328000,-85.7500,15,87.27,0.10,12.85
32.338000,-86.7500,15,87.27,0.10,12.85
32.348000,-85.6250,15,87.27,0.10,12.85
32.358000,-86.7500,15,87.27,0.10,12.85
32.368000,-80.8750,15,87.27,0.10,12.85
32.378000,-81.2500,15,87.27,0.10,12.85
32.388000,-87.6250,15,87.27,0.10,12.85
32.398000,-86.8750,15,87.27,0.10,12.85
32.408000,-87.0000,15,87.27,0.10,12.85
32.418000,-87.5000,15,87.27,0.10,12.85
32.428000,-88.2500,15,87.27,0.10,12.85
32.438000,-87.5000,15,87.27,0.10,12.85
32.448000,-85.0000,15,87.27,0.10,12.85
32.458000,-86.0000,15,87.27,0.10,12.85
32.468000,-86.8750,15,87.27,0.10,12.85
32.478000,-87.3750,15,87.27,0.10,12.85
32.488000,-87.2500,15,87.27,0.10,12.85
32.498000,-86.7500,15,87.27,0.10,12.85
32.508000,-87.3750,15,87.27,0.10,12.85
32.518000,-78.5000,15,87.27,0.10,12.85
32.528000,-72.8750,15,87.27,0.10,12.85
32.538000,-83.6250,15,87.27,0.10,12.85
32.548000,-96.2500,15,87.27,0.10,12.85
32.558000,-93.5000,15,87.27,0.10,12.85
32.568000,-83.3750,15,87.27,0.10,12.85
32.578000,-83.5000,15,87.27,0.10,12.85
32.588000,-84.3750,15,87.27,0.10,12.85
32.598000,-84.5000,15,87.27,0.10,12.85
32.608000,-84.0000,15,87.27,0.10,12.85
32.618000,-79.5000,15,87.27,0.10,12.85
32.628000,-76.6250,15,87.27,0.10,12.85
32.638000,-76.3750,15,87.27,0.10,12.85
32.648000,-78.5000,15,87.27,0.10,12.85
32.658000,-87.6250,15,87.27,0.10,12.85
32.668000,-87.0000,15,87.27,0.10,12.85
32.678000,-87.1250,15,87.27,0.10,12.85
32.688000,-86.5000,15,87.27,0.10,12.85
32.698000,-88.6250,15,87.27,0.10,12.85
32.708000,-86.2500,15,87.27,0.10,12.85
32.718000,-86.0000,15,87.27,0.10,12.85
32.728000,-84.8750,15,87.27,0.10,12.85
32.738000,-85.1250,15,87.27,0.10,12.85
32.748000,-86.0000,15,87.27,0.10,12.85
32.758000,-84.6250,15,87.27,0.10,12.85
32.768000,-86.0000,15,87.27,0.10,12.85
32.778000,-74.3750,15,87.27,0.10,12.85
32.788000,-95.0000,15,87.27,0.10,12.85
32.798000,-85.6250,15,87.27,0.10,12.85
32.808000,-80.7500,15,87.27,0.10,12.85
32.818000,-81.1250,15,87.27,0.10,12.85
32.828000,-79.8750,15,87.27,0.10,12.85
32.838000,-76.3750,15,87.27,0.10,12.85
32.848000,-74.5000,15,87.27,0.10,12.85
32.858000,-75.0000,15,87.27,0.10,12.85
32.868000,-71.3750,15,87.27,0.10,12.85
32.878000,-73.0000,15,87.27,0.10,12.85
32.888000,-70.5000,15,87.27,0.10,12.85
32.898000,-73.3750,15,87.27,0.10,12.85
32.908000,-72.1250,15,87.27,0.10,12.85
32.918000,-81.6250,15,87.27,0.10,12.85
32.928000,-84.1250,15,87.27,0.10,12.85
32.938000,-82.3750,15,87.27,0.10,12.85
32.948000,-82.8750,15,87.27,0.10,12.85
32.958000,-83.2500,15,87.27,0.10,12.85
32.968000,-82.3750,15,87.27,0.10,12.85
32.978000,-83.5000,15,87.27,0.10,12.85
32.988000,-85.3750,15,87.27,0.10,12.85
32.998000,-87.0000,15,87.27,0.10,12.85
33.008000,-85.2500,15,87.27,0.10,12.85
33.018000,-85.8750,15,87.27,0.10,12.85
33.028000,-84.1250,15,87.27,0.10,12.85
33.038000,-86.7500,15,87.27,0.10,12.85
33.048000,-86.8750,15,87.27,0.10,12.85
33.058000,-86.5000,15,87.27,0.10,12.85
33.068000,-88.1250,15,87.27,0.10,12.85
33.078000,-74.0000,15,87.27,0.10,12.85
33.088000,-91.1250,15,87.27,0.10,12.85
33.098000,-102.1250,15,87.27,0.10,12.85
33.108000,-85.2500,15,87.27,0.10,12.85
33.118000,-81.5000,15,87.27,0.10,12.85
33.128000,-82.8750,15,87.27,0.10,12.85
33.138000,-81.1250,15,87.27,0.10,12.85
33.148000,-81.5000,15,87.27,0.10,12.85
33.158000,-86.0000,15,87.27,0.10,12.85
33.168000,-89.3750,15,87.27,0.10,12.85
33.178000,-87.6250,15,87.27,0.10,12.85
33.188000,-89.2500,15,87.27,0.10,12.85
33.198000,-90.3750,15,87.27,0.10,12.85
33.208000,-88.6250,15,87.27,0.10,12.85
33.218000,-90.3750,15,87.27,0.10,12.85
33.228000,-88.3750,15,87.27,0.10,12.85
33.238000,-88.8750,15,87.27,0.10,12.85
33.248000,-89.6250,15,87.27,0.10,12.85
33.258000,-87.3750,15,87.27,0.10,12.85
33.268000,-87.0000,15,87.27,0.10,12.85
33.278000,-86.3750,15,87.27,0.10,12.85
33.288000,-86.7500,15,87.27,0.10,12.85
33.298000,-88.3750,15,87.27,0.10,12.85
33.308000,-89.1250,15,87.27,0.10,12.85
33.318000,-88.3750,15,87.27,0.10,12.85
33.328000,-89.3750,15,87.27,0.10,12.85
33.338000,-82.2500,15,87.27,0.10,12.85
33.348000,-98.8750,15,87.27,0.10,12.85
33.358000,-80.6250,15,87.27,0.10,12.85
33.368000,-80.0000,15,87.27,0.10,12.85
33.378000,-76.2500,15,87.27,0.10,12.85
33.388000,-73.3750,15,87.27,0.10,12.85
33.398000,-71.7500,15,87.27,0.10,12.85
33.408000,-72.2500,15,87.27,0.10,12.85
33.418000,-75.3750,15,87.27,0.10,12.85
33.428000,-76.5000,15,87.27,0.10,12.85
33.438000,-78.5000,15,87.27,0.10,12.85
33.448000,-78.1250,15,87.27,0.10,12.85
33.458000,-77.2500,15,87.27,0.10,12.85
33.468000,-75.2500,15,87.27,0.10,12.85
33.478000,-75.5000,15,87.27,0.10,12.85
33.488000,-78.0000,15,87.27,0.10,12.85
33.498000,-77.2500,15,87.27,0.10,12.85
33.508000,-75.2500,15,87.27,0.10,12.85
33.518000,-77.3750,15,87.27,0.10,12.85
33.528000,-77.5000,15,87.27,0.10,12.85
33.538000,-78.7500,15,87.27,0.10,12.85
33.548000,-79.6250,15,87.27,0.10,12.85
33.558000,-80.0000,15,87.27,0.10,12.85
33.568000,-80.7500,15,87.27,0.10,12.85
33.578000,-80.1250,15,87.27,0.10,12.85
33.588000,-97.0000,15,87.27,0.10,12.85
33.598000,-79.8750,15,87.27,0.10,12.85
33.608000,-79.7500,15,87.27,0.10,12.85
